timestamp,session_id,level_number,value
1769531168.303,269,1,"(32.41, 20.0)"
1769531168.314,269,1,"(11.25, 18.0)"
1769531168.324,269,1,"(-13.21, 16.0)"
1769531168.335,269,1,"(-18.07, 16.0)"
1769531168.346,269,1,"(-3.75, 16.0)"
1769531168.357,269,1,"(6.6, 16.0)"
1769531168.367,269,1,"(-1.42, 16.0)"
1769531168.378,269,1,"(-2.23, 16.0)"
1769531168.388,269,1,"(-1.39, 16.0)"
1769531168.398,269,1,"(0.91, 16.0)"
1769531168.409,269,1,"(0.08, 16.0)"
1769531168.419,269,1,"(-0.46, 16.0)"
1769531168.429,269,1,"(0.07, 16.0)"
1769531168.439,269,1,"(0.22, 16.0)"
1769531168.451,269,1,"(-0.04, 16.0)"
1769531168.461,269,1,"(-0.07, 16.0)"
1769531168.471,269,1,"(0.05, 16.0)"
1769531168.481,269,1,"(0.01, 16.0)"
1769531168.492,269,1,"(0.02, 16.0)"
1769531168.502,269,1,"(0.08, 16.0)"
1769531168.512,269,1,"(0.16, 16.0)"
1769531168.523,269,1,"(0.1, 16.0)"
1769531168.533,269,1,"(-4.08, 16.0)"
1769531168.543,269,1,"(17.45, 16.0)"
1769531168.554,269,1,"(-125.12, 18.0)"
1769531168.564,269,1,"(-52.41, 18.0)"
1769531168.574,269,1,"(16.55, 18.0)"
1769531168.585,269,1,"(15.92, 18.0)"
1769531168.596,269,1,"(3.23, 18.0)"
1769531168.606,269,1,"(-5.82, 18.0)"
1769531168.618,269,1,"(-1.93, 18.0)"
1769531168.628,269,1,"(2.16, 18.0)"
1769531168.638,269,1,"(-0.75, 18.0)"
1769531168.649,269,1,"(-0.37, 18.0)"
1769531168.659,269,1,"(0.72, 18.0)"
1769531168.669,269,1,"(0.28, 18.0)"
1769531168.679,269,1,"(-0.15, 18.0)"
1769531168.690,269,1,"(-0.22, 18.0)"
1769531168.700,269,1,"(0.1, 18.0)"
1769531168.711,269,1,"(0.08, 18.0)"
1769531168.721,269,1,"(-0.07, 18.0)"
1769531168.732,269,1,"(-0.02, 18.0)"
1769531168.742,269,1,"(0.02, 18.0)"
1769531168.753,269,1,"(0.01, 18.0)"
1769531168.764,269,1,"(2.13, 18.0)"
1769531168.774,269,1,"(-32.05, 18.0)"
1769531168.785,269,1,"(-68.69, 24.0)"
1769531168.795,269,1,"(-61.01, 26.0)"
1769531168.805,269,1,"(-9.64, 24.0)"
1769531168.816,269,1,"(-2.36, 20.0)"
1769531168.826,269,1,"(-5.41, 18.0)"
1769531168.836,269,1,"(-3.53, 18.0)"
1769531168.847,269,1,"(1.62, 18.0)"
1769531168.858,269,1,"(1.87, 16.0)"
1769531168.868,269,1,"(-1.72, 16.0)"
1769531168.878,269,1,"(-0.98, 16.0)"
1769531168.888,269,1,"(0.92, 16.0)"
1769531168.900,269,1,"(0.01, 16.0)"
1769531168.909,269,1,"(-0.59, 16.0)"
1769531168.920,269,1,"(0.03, 16.0)"
1769531168.930,269,1,"(0.47, 16.0)"
1769531168.941,269,1,"(0.32, 16.0)"
1769531168.952,269,1,"(-0.08, 16.0)"
1769531168.962,269,1,"(0.39, 16.0)"
1769531168.973,269,1,"(0.26, 16.0)"
1769531168.985,269,1,"(-0.18, 16.0)"
1769531168.995,269,1,"(-0.01, 16.0)"
1769531169.006,269,1,"(-1.38, 16.0)"
1769531169.016,269,1,"(35.71, 18.0)"
1769531169.026,269,1,"(84.06, 22.0)"
1769531169.036,269,1,"(56.06, 24.0)"
1769531169.047,269,1,"(9.04, 22.0)"
1769531169.057,269,1,"(5.01, 20.0)"
1769531169.069,269,1,"(7.33, 18.0)"
1769531169.079,269,1,"(5.78, 18.0)"
1769531169.089,269,1,"(-2.49, 18.0)"
1769531169.100,269,1,"(-2.17, 18.0)"
1769531169.110,269,1,"(2.16, 18.0)"
1769531169.120,269,1,"(1.76, 18.0)"
1769531169.130,269,1,"(-0.8, 18.0)"
1769531169.141,269,1,"(-0.58, 18.0)"
1769531169.153,269,1,"(0.51, 18.0)"
1769531169.164,269,1,"(0.25, 18.0)"
1769531169.175,269,1,"(0.08, 18.0)"
1769531169.186,269,1,"(-0.08, 18.0)"
1769531169.196,269,1,"(0.01, 18.0)"
1769531169.206,269,1,"(0.03, 18.0)"
1769531169.217,269,1,"(-0.02, 18.0)"
1769531169.227,269,1,"(0.17, 18.0)"
1769531169.238,269,1,"(-19.65, 18.0)"
1769531169.248,269,1,"(-108.64, 22.0)"
1769531169.258,269,1,"(50.05, 28.0)"
1769531169.270,269,1,"(-9.45, 32.0)"
1769531169.280,269,1,"(24.55, 28.0)"
1769531169.291,269,1,"(-5.44, 24.0)"
1769531169.301,269,1,"(-5.87, 20.0)"
1769531169.312,269,1,"(-4.59, 18.0)"
1769531169.322,269,1,"(2.99, 18.0)"
1769531169.333,269,1,"(-0.1, 18.0)"
1769531169.343,269,1,"(-1.27, 16.0)"
1769531169.354,269,1,"(0.74, 16.0)"
1769531169.364,269,1,"(0.6, 16.0)"
1769531169.375,269,1,"(0.2, 16.0)"
1769531169.388,269,1,"(-0.2, 16.0)"
1769531169.398,269,1,"(0.04, 16.0)"
1769531169.409,269,1,"(0.07, 16.0)"
1769531169.419,269,1,"(0.01, 16.0)"
1769531169.429,269,1,"(-0.01, 16.0)"
1769531169.439,269,1,"(-0.25, 16.0)"
1769531169.450,269,1,"(0.24, 16.0)"
1769531169.460,269,1,"(-0.16, 16.0)"
1769531169.470,269,1,"(-0.97, 16.0)"
1769531169.481,269,1,"(-45.24, 18.0)"
1769531169.492,269,1,"(91.34, 22.0)"
1769531169.502,269,1,"(52.41, 24.0)"
1769531169.512,269,1,"(12.91, 20.0)"
1769531169.523,269,1,"(-13.83, 16.0)"
1769531169.536,269,1,"(-7.45, 16.0)"
1769531169.546,269,1,"(-3.88, 16.0)"
1769531169.556,269,1,"(5.68, 16.0)"
1769531169.568,269,1,"(0.46, 16.0)"
1769531169.578,269,1,"(-1.19, 16.0)"
1769531169.589,269,1,"(-0.76, 16.0)"
1769531169.599,269,1,"(0.61, 16.0)"
1769531169.610,269,1,"(0.17, 14.0)"
1769531169.621,269,1,"(-0.18, 14.0)"
1769531169.631,269,1,"(0.09, 14.0)"
1769531169.642,269,1,"(0.11, 14.0)"
1769531169.653,269,1,"(0.06, 14.0)"
1769531169.664,269,1,"(-0.04, 14.0)"
1769531169.674,269,1,"(-0.03, 14.0)"
1769531169.685,269,1,"(-0.01, 14.0)"
1769531169.698,269,1,"(1.99, 16.0)"
1769531169.708,269,1,"(-26.7, 18.0)"
1769531169.719,269,1,"(-60.12, 26.0)"
1769531169.730,269,1,"(49.17, 28.0)"
1769531169.740,269,1,"(-2.73, 28.0)"
1769531169.750,269,1,"(-5.69, 22.0)"
1769531169.760,269,1,"(-0.3, 20.0)"
1769531169.771,269,1,"(7.5, 18.0)"
1769531169.781,269,1,"(2.08, 18.0)"
1769531169.792,269,1,"(-2.06, 18.0)"
1769531169.804,269,1,"(0.36, 18.0)"
1769531169.814,269,1,"(0.65, 16.0)"
1769531169.825,269,1,"(0.58, 16.0)"
1769531169.835,269,1,"(-0.31, 16.0)"
1769531169.846,269,1,"(-0.06, 16.0)"
1769531169.857,269,1,"(0.17, 16.0)"
1769531169.868,269,1,"(0.06, 16.0)"
1769531169.878,269,1,"(-0.07, 16.0)"
1769531169.888,269,1,"(-0.02, 16.0)"
1769531169.898,269,1,"(0.02, 16.0)"
1769531169.909,269,1,"(0.03, 16.0)"
1769531169.919,269,1,"(3.82, 18.0)"
1769531169.930,269,1,"(84.17, 24.0)"
1769531169.941,269,1,"(97.95, 30.0)"
1769531169.952,269,1,"(14.37, 32.0)"
1769531169.962,269,1,"(-17.38, 30.0)"
1769531169.973,269,1,"(-8.95, 24.0)"
1769531169.984,269,1,"(6.18, 20.0)"
1769531169.994,269,1,"(-2.5, 20.0)"
1769531170.005,269,1,"(-0.64, 18.0)"
1769531170.016,269,1,"(0.37, 18.0)"
1769531170.026,269,1,"(0.81, 18.0)"
1769531170.037,269,1,"(-0.35, 18.0)"
1769531170.048,269,1,"(-0.72, 18.0)"
1769531170.059,269,1,"(-0.26, 18.0)"
1769531170.069,269,1,"(0.25, 18.0)"
1769531170.079,269,1,"(0.08, 18.0)"
1769531170.090,269,1,"(-0.1, 18.0)"
1769531170.100,269,1,"(-0.05, 18.0)"
1769531170.111,269,1,"(0.0, 18.0)"
1769531170.122,269,1,"(3.57, 18.0)"
1769531170.133,269,1,"(22.87, 18.0)"
1769531170.143,269,1,"(71.1, 24.0)"
1769531170.153,269,1,"(41.74, 28.0)"
1769531170.165,269,1,"(-14.67, 30.0)"
1769531170.175,269,1,"(-0.72, 30.0)"
1769531170.185,269,1,"(-1.43, 24.0)"
1769531170.196,269,1,"(1.75, 20.0)"
1769531170.206,269,1,"(-0.62, 16.0)"
1769531170.217,269,1,"(0.02, 16.0)"
1769531170.227,269,1,"(1.59, 14.0)"
1769531170.237,269,1,"(0.74, 14.0)"
1769531170.249,269,1,"(-0.68, 14.0)"
1769531170.260,269,1,"(-0.13, 14.0)"
1769531170.270,269,1,"(-0.05, 14.0)"
1769531170.281,269,1,"(0.24, 14.0)"
1769531170.291,269,1,"(0.23, 14.0)"
1769531170.302,269,1,"(-0.09, 14.0)"
1769531170.312,269,1,"(0.17, 14.0)"
1769531170.323,269,1,"(-0.04, 14.0)"
1769531170.334,269,1,"(0.01, 14.0)"
1769531170.344,269,1,"(-1.71, 14.0)"
1769531170.354,269,1,"(-63.67, 16.0)"
1769531170.366,269,1,"(84.15, 20.0)"
1769531170.376,269,1,"(35.76, 26.0)"
1769531170.386,269,1,"(15.33, 26.0)"
1769531170.398,269,1,"(15.93, 22.0)"
1769531170.409,269,1,"(-12.04, 20.0)"
1769531170.419,269,1,"(-5.82, 20.0)"
1769531170.430,269,1,"(-1.93, 18.0)"
1769531170.441,269,1,"(0.86, 18.0)"
1769531170.452,269,1,"(-0.76, 18.0)"
1769531170.462,269,1,"(-0.37, 18.0)"
1769531170.473,269,1,"(0.72, 18.0)"
1769531170.484,269,1,"(0.33, 18.0)"
1769531170.494,269,1,"(-0.28, 18.0)"
1769531170.505,269,1,"(-0.22, 18.0)"
1769531170.517,269,1,"(0.1, 18.0)"
1769531170.527,269,1,"(0.08, 18.0)"
1769531170.538,269,1,"(0.02, 18.0)"
1769531170.548,269,1,"(-0.02, 18.0)"
1769531170.558,269,1,"(-21.63, 18.0)"
1769531170.568,269,1,"(49.63, 20.0)"
1769531170.579,269,1,"(33.79, 26.0)"
1769531170.589,269,1,"(42.28, 30.0)"
1769531170.599,269,1,"(0.88, 32.0)"
1769531170.610,269,1,"(-17.29, 32.0)"
1769531170.620,269,1,"(4.18, 26.0)"
1769531170.630,269,1,"(0.52, 20.0)"
1769531170.641,269,1,"(-1.17, 18.0)"
1769531170.654,269,1,"(-2.17, 18.0)"
1769531170.664,269,1,"(-1.49, 16.0)"
1769531170.675,269,1,"(0.55, 16.0)"
1769531170.686,269,1,"(0.6, 16.0)"
1769531170.697,269,1,"(0.07, 16.0)"
1769531170.708,269,1,"(0.04, 16.0)"
1769531170.718,269,1,"(0.08, 16.0)"
1769531170.728,269,1,"(-0.01, 16.0)"
1769531170.739,269,1,"(-0.07, 16.0)"
1769531170.750,269,1,"(-0.03, 16.0)"
1769531170.760,269,1,"(0.02, 16.0)"
1769531170.771,269,1,"(-1.59, 16.0)"
1769531170.782,269,1,"(17.33, 18.0)"
1769531170.792,269,1,"(-125.23, 24.0)"
1769531170.803,269,1,"(-52.46, 30.0)"
1769531170.814,269,1,"(15.31, 30.0)"
1769531170.825,269,1,"(15.91, 28.0)"
1769531170.835,269,1,"(-5.77, 24.0)"
1769531170.846,269,1,"(-5.81, 20.0)"
1769531170.857,269,1,"(6.15, 20.0)"
1769531170.867,269,1,"(0.86, 18.0)"
1769531170.878,269,1,"(-0.76, 18.0)"
1769531170.889,269,1,"(-0.37, 18.0)"
1769531170.900,269,1,"(0.72, 18.0)"
1769531170.910,269,1,"(0.51, 18.0)"
1769531170.921,269,1,"(-0.15, 18.0)"
1769531170.931,269,1,"(-0.22, 18.0)"
1769531170.941,269,1,"(0.1, 18.0)"
1769531170.952,269,1,"(0.08, 18.0)"
1769531170.963,269,1,"(0.02, 18.0)"
1769531170.973,269,1,"(2.63, 18.0)"
1769531170.983,269,1,"(64.92, 20.0)"
1769531170.994,269,1,"(-52.83, 24.0)"
1769531171.005,269,1,"(-18.03, 30.0)"
1769531171.015,269,1,"(-14.74, 32.0)"
1769531171.025,269,1,"(3.09, 32.0)"
1769531171.036,269,1,"(9.34, 32.0)"
1769531171.046,269,1,"(-5.07, 26.0)"
1769531171.056,269,1,"(0.84, 22.0)"
1769531171.067,269,1,"(1.93, 18.0)"
1769531171.078,269,1,"(2.17, 18.0)"
1769531171.088,269,1,"(-1.56, 16.0)"
1769531171.099,269,1,"(-0.73, 16.0)"
1769531171.109,269,1,"(0.78, 16.0)"
1769531171.119,269,1,"(0.29, 16.0)"
1769531171.130,269,1,"(-0.45, 16.0)"
1769531171.141,269,1,"(-0.23, 16.0)"
1769531171.152,269,1,"(0.26, 16.0)"
1769531171.163,269,1,"(-0.2, 16.0)"
1769531171.173,269,1,"(0.04, 16.0)"
1769531171.183,269,1,"(0.14, 16.0)"
1769531171.194,269,1,"(-3.91, 16.0)"
1769531171.205,269,1,"(17.62, 18.0)"
1769531171.216,269,1,"(-124.99, 24.0)"
1769531171.227,269,1,"(-52.42, 30.0)"
1769531171.238,269,1,"(4.94, 30.0)"
1769531171.249,269,1,"(-8.95, 24.0)"
1769531171.260,269,1,"(3.24, 22.0)"
1769531171.271,269,1,"(-2.48, 20.0)"
1769531171.282,269,1,"(-1.93, 18.0)"
1769531171.292,269,1,"(2.16, 18.0)"
1769531175.516,269,2,"(1.56, 24.0)"
1769531175.527,269,2,"(10.16, 24.0)"
1769531175.538,269,2,"(0.52, 24.0)"
1769531175.549,269,2,"(-2.68, 24.0)"
1769531175.560,269,2,"(-0.53, 24.0)"
1769531175.571,269,2,"(0.5, 24.0)"
1769531175.581,269,2,"(0.38, 24.0)"
1769531175.592,269,2,"(-0.16, 24.0)"
1769531175.603,269,2,"(-0.06, 22.0)"
1769531175.614,269,2,"(0.02, 14.0)"
1769531175.624,269,2,"(17.71, 10.0)"
1769531175.635,269,2,"(-73.57, 12.0)"
1769531175.646,269,2,"(-64.19, 18.0)"
1769531175.657,269,2,"(8.93, 22.0)"
1769531175.668,269,2,"(5.05, 22.0)"
1769531175.678,269,2,"(7.34, 24.0)"
1769531175.688,269,2,"(0.07, 24.0)"
1769531175.698,269,2,"(-7.89, 24.0)"
1769531175.709,269,2,"(2.35, 24.0)"
1769531175.719,269,2,"(2.13, 24.0)"
1769531175.731,269,2,"(-2.39, 24.0)"
1769531175.740,269,2,"(-0.8, 24.0)"
1769531175.751,269,2,"(1.14, 24.0)"
1769531175.762,269,2,"(17.78, 22.0)"
1769531175.772,269,2,"(3.15, 22.0)"
1769531175.782,269,2,"(62.6, 24.0)"
1769531175.793,269,2,"(21.7, 26.0)"
1769531175.803,269,2,"(-4.82, 26.0)"
1769531175.814,269,2,"(-7.27, 26.0)"
1769531175.823,269,2,"(4.47, 28.0)"
1769531175.834,269,2,"(2.3, 28.0)"
1769531175.846,269,2,"(-0.99, 28.0)"
1769531175.856,269,2,"(0.03, 28.0)"
1769531175.867,269,2,"(0.32, 28.0)"
1769531175.878,269,2,"(0.08, 28.0)"
1769531175.888,269,2,"(-0.41, 26.0)"
1769531175.898,269,2,"(3.54, 20.0)"
1769531175.909,269,2,"(84.03, 20.0)"
1769531175.919,269,2,"(35.86, 24.0)"
1769531175.929,269,2,"(8.94, 26.0)"
1769531175.941,269,2,"(-26.45, 26.0)"
1769531175.952,269,2,"(-12.03, 26.0)"
1769531175.963,269,2,"(5.78, 26.0)"
1769531175.972,269,2,"(4.46, 28.0)"
1769531175.983,269,2,"(-3.21, 28.0)"
1769531175.993,269,2,"(-1.87, 28.0)"
1769531176.003,269,2,"(1.76, 28.0)"
1769531176.014,269,2,"(0.52, 26.0)"
1769531176.025,269,2,"(0.06, 26.0)"
1769531176.035,269,2,"(11.45, 24.0)"
1769531176.046,269,2,"(14.52, 24.0)"
1769531176.056,269,2,"(18.88, 24.0)"
1769531176.067,269,2,"(-5.21, 24.0)"
1769531176.078,269,2,"(0.62, 24.0)"
1769531176.088,269,2,"(-0.59, 24.0)"
1769531176.100,269,2,"(0.97, 24.0)"
1769531176.110,269,2,"(-0.85, 26.0)"
1769531176.120,269,2,"(-1.31, 26.0)"
1769531176.131,269,2,"(0.91, 26.0)"
1769531176.141,269,2,"(0.56, 26.0)"
1769531176.152,269,2,"(0.27, 24.0)"
1769531176.162,269,2,"(-3.1, 20.0)"
1769531176.172,269,2,"(23.21, 16.0)"
1769531176.184,269,2,"(-121.16, 20.0)"
1769531176.193,269,2,"(-50.26, 24.0)"
1769531176.204,269,2,"(15.34, 22.0)"
1769531176.216,269,2,"(16.31, 24.0)"
1769531176.226,269,2,"(0.3, 24.0)"
1769531176.237,269,2,"(0.86, 24.0)"
1769531176.248,269,2,"(2.06, 24.0)"
1769531176.258,269,2,"(0.94, 24.0)"
1769531176.268,269,2,"(-0.63, 24.0)"
1769531176.279,269,2,"(-0.41, 24.0)"
1769531176.288,269,2,"(-0.43, 24.0)"
1769531176.299,269,2,"(-19.59, 22.0)"
1769531176.310,269,2,"(-41.94, 22.0)"
1769531176.321,269,2,"(-66.16, 28.0)"
1769531176.332,269,2,"(0.28, 28.0)"
1769531176.343,269,2,"(17.22, 30.0)"
1769531176.353,269,2,"(8.62, 30.0)"
1769531176.365,269,2,"(-2.42, 30.0)"
1769531176.374,269,2,"(-0.51, 30.0)"
1769531176.385,269,2,"(1.91, 30.0)"
1769531176.396,269,2,"(-1.45, 30.0)"
1769531176.406,269,2,"(-1.22, 30.0)"
1769531176.417,269,2,"(0.01, 30.0)"
1769531176.428,269,2,"(36.28, 28.0)"
1769531176.438,269,2,"(17.25, 26.0)"
1769531176.448,269,2,"(55.85, 28.0)"
1769531176.458,269,2,"(-52.33, 30.0)"
1769531176.468,269,2,"(5.09, 30.0)"
1769531176.479,269,2,"(15.85, 30.0)"
1769531176.489,269,2,"(3.19, 30.0)"
1769531176.499,269,2,"(-5.79, 30.0)"
1769531176.510,269,2,"(-1.91, 30.0)"
1769531176.521,269,2,"(2.16, 30.0)"
1769531176.532,269,2,"(-0.76, 32.0)"
1769531176.543,269,2,"(0.22, 32.0)"
1769531176.553,269,2,"(-10.46, 32.0)"
1769531176.564,269,2,"(-56.57, 30.0)"
1769531176.575,269,2,"(-72.17, 32.0)"
1769531176.585,269,2,"(-65.47, 32.0)"
1769531176.597,269,2,"(-3.39, 34.0)"
1769531176.607,269,2,"(9.27, 34.0)"
1769531176.618,269,2,"(2.26, 34.0)"
1769531176.628,269,2,"(-6.51, 34.0)"
1769531176.638,269,2,"(2.81, 34.0)"
1769531176.648,269,2,"(2.0, 34.0)"
1769531176.659,269,2,"(-1.83, 34.0)"
1769531176.669,269,2,"(-0.43, 34.0)"
1769531176.680,269,2,"(-1.13, 34.0)"
1769531176.690,269,2,"(-62.82, 34.0)"
1769531176.702,269,2,"(84.01, 34.0)"
1769531176.713,269,2,"(35.7, 34.0)"
1769531176.723,269,2,"(15.25, 34.0)"
1769531176.735,269,2,"(-9.19, 34.0)"
1769531176.746,269,2,"(3.24, 34.0)"
1769531176.756,269,2,"(-5.82, 34.0)"
1769531176.767,269,2,"(-1.94, 34.0)"
1769531176.777,269,2,"(0.87, 34.0)"
1769531176.788,269,2,"(-0.75, 34.0)"
1769531176.798,269,2,"(-0.62, 34.0)"
1769531176.808,269,2,"(-13.28, 34.0)"
1769531176.818,269,2,"(-2.6, 34.0)"
1769531176.828,269,2,"(-14.42, 30.0)"
1769531176.839,269,2,"(13.12, 26.0)"
1769531176.850,269,2,"(3.89, 24.0)"
1769531176.860,269,2,"(-4.69, 24.0)"
1769531176.871,269,2,"(0.94, 24.0)"
1769531176.882,269,2,"(1.92, 24.0)"
1769531176.892,269,2,"(-1.01, 22.0)"
1769531176.902,269,2,"(-0.55, 22.0)"
1769531176.912,269,2,"(0.39, 22.0)"
1769531176.923,269,2,"(-3.55, 22.0)"
1769531176.935,269,2,"(-63.58, 24.0)"
1769531176.945,269,2,"(-125.39, 30.0)"
1769531176.955,269,2,"(-52.55, 30.0)"
1769531176.965,269,2,"(15.38, 26.0)"
1769531176.976,269,2,"(15.91, 24.0)"
1769531176.987,269,2,"(-5.8, 24.0)"
1769531176.997,269,2,"(-5.82, 24.0)"
1769531177.007,269,2,"(6.16, 24.0)"
1769531177.018,269,2,"(-2.18, 22.0)"
1769531177.029,269,2,"(-0.58, 22.0)"
1769531177.039,269,2,"(-2.44, 22.0)"
1769531177.050,269,2,"(-12.4, 24.0)"
1769531177.060,269,2,"(-17.7, 26.0)"
1769531177.071,269,2,"(1.55, 28.0)"
1769531177.082,269,2,"(-8.82, 28.0)"
1769531177.092,269,2,"(-2.2, 28.0)"
1769531177.104,269,2,"(1.11, 28.0)"
1769531177.114,269,2,"(-2.04, 28.0)"
1769531177.124,269,2,"(-2.96, 28.0)"
1769531177.136,269,2,"(0.78, 28.0)"
1769531177.146,269,2,"(1.25, 28.0)"
1769531177.156,269,2,"(26.47, 28.0)"
1769531177.168,269,2,"(45.95, 30.0)"
1769531177.179,269,2,"(68.6, 38.0)"
1769531177.190,269,2,"(10.69, 38.0)"
1769531177.200,269,2,"(-1.84, 34.0)"
1769531177.210,269,2,"(2.28, 28.0)"
1769531177.221,269,2,"(5.84, 28.0)"
1769531177.232,269,2,"(-6.19, 26.0)"
1769531177.243,269,2,"(-1.68, 26.0)"
1769531177.253,269,2,"(1.68, 26.0)"
1769531177.264,269,2,"(-3.6, 26.0)"
1769531177.274,269,2,"(-2.87, 28.0)"
1769531177.285,269,2,"(-22.02, 30.0)"
1769531177.295,269,2,"(-43.25, 36.0)"
1769531177.305,269,2,"(6.51, 36.0)"
1769531177.315,269,2,"(12.49, 34.0)"
1769531177.326,269,2,"(-3.06, 32.0)"
1769531177.336,269,2,"(-3.96, 30.0)"
1769531177.347,269,2,"(4.99, 30.0)"
1769531177.358,269,2,"(1.24, 30.0)"
1769531177.369,269,2,"(-1.31, 30.0)"
1769531177.381,269,2,"(-4.48, 30.0)"
1769531177.392,269,2,"(-63.15, 32.0)"
1769531177.404,269,2,"(-124.92, 38.0)"
1769531177.414,269,2,"(-18.38, 42.0)"
1769531177.425,269,2,"(16.45, 40.0)"
1769531177.435,269,2,"(22.19, 34.0)"
1769531177.446,269,2,"(-5.72, 34.0)"
1769531177.457,269,2,"(-5.79, 32.0)"
1769531177.468,269,2,"(-1.93, 32.0)"
1769531177.478,269,2,"(0.86, 32.0)"
1769531177.488,269,2,"(-1.69, 32.0)"
1769531177.499,269,2,"(-8.77, 32.0)"
1769531177.509,269,2,"(-25.75, 34.0)"
1769531177.520,269,2,"(-25.56, 36.0)"
1769531177.529,269,2,"(9.66, 36.0)"
1769531177.541,269,2,"(10.27, 30.0)"
1769531177.552,269,2,"(-2.81, 28.0)"
1769531177.562,269,2,"(-2.98, 26.0)"
1769531177.572,269,2,"(0.73, 26.0)"
1769531177.583,269,2,"(1.26, 26.0)"
1769531177.593,269,2,"(-1.31, 26.0)"
1769531177.604,269,2,"(-2.18, 26.0)"
1769531177.614,269,2,"(-64.79, 26.0)"
1769531177.625,269,2,"(-111.9, 34.0)"
1769531177.636,269,2,"(-45.25, 38.0)"
1769531177.646,269,2,"(15.44, 38.0)"
1769531177.656,269,2,"(19.04, 32.0)"
1769531177.668,269,2,"(3.77, 26.0)"
1769531177.678,269,2,"(-6.23, 26.0)"
1769531177.688,269,2,"(1.43, 24.0)"
1769531177.699,269,2,"(1.13, 24.0)"
1769531177.710,269,2,"(-7.59, 24.0)"
1769531177.720,269,2,"(-8.86, 24.0)"
1769531177.730,269,2,"(-42.69, 26.0)"
1769531177.741,269,2,"(-16.12, 28.0)"
1769531177.751,269,2,"(-7.51, 30.0)"
1769531177.761,269,2,"(4.17, 28.0)"
1769531177.772,269,2,"(4.57, 26.0)"
1769531177.782,269,2,"(-1.75, 24.0)"
1769531177.793,269,2,"(1.48, 24.0)"
1769531177.804,269,2,"(0.99, 24.0)"
1769531177.814,269,2,"(-0.87, 24.0)"
1769531177.824,269,2,"(6.0, 24.0)"
1769531177.835,269,2,"(105.32, 28.0)"
1769531177.846,269,2,"(95.26, 34.0)"
1769531177.856,269,2,"(7.08, 38.0)"
1769531177.867,269,2,"(-15.85, 38.0)"
1769531177.877,269,2,"(-7.83, 32.0)"
1769531177.887,269,2,"(3.02, 28.0)"
1769531177.898,269,2,"(4.0, 26.0)"
1769531177.908,269,2,"(-3.14, 26.0)"
1769531177.919,269,2,"(3.43, 24.0)"
1769531177.929,269,2,"(7.68, 26.0)"
1769531177.940,269,2,"(48.7, 28.0)"
1769531177.953,269,2,"(-71.57, 32.0)"
1769531177.962,269,2,"(-30.73, 34.0)"
1769531177.973,269,2,"(-7.42, 34.0)"
1769531177.983,269,2,"(10.31, 34.0)"
1769531177.994,269,2,"(4.49, 32.0)"
1769531178.004,269,2,"(1.76, 30.0)"
1769531178.014,269,2,"(-2.3, 30.0)"
1769531178.025,269,2,"(-5.83, 30.0)"
1769531178.035,269,2,"(4.58, 30.0)"
1769531178.046,269,2,"(-45.92, 36.0)"
1769531178.056,269,2,"(35.53, 42.0)"
1769531178.066,269,2,"(15.29, 44.0)"
1769531178.077,269,2,"(-26.46, 46.0)"
1769531178.087,269,2,"(-12.11, 44.0)"
1769531178.098,269,2,"(1.27, 36.0)"
1769531178.108,269,2,"(4.52, 34.0)"
1769531178.119,269,2,"(-2.81, 32.0)"
1769531178.130,269,2,"(14.77, 32.0)"
1769531178.141,269,2,"(75.02, 34.0)"
1769531178.153,269,2,"(60.67, 38.0)"
1769531178.162,269,2,"(27.46, 40.0)"
1769531178.172,269,2,"(-10.23, 40.0)"
1769531178.183,269,2,"(-5.46, 42.0)"
1769531178.194,269,2,"(1.86, 40.0)"
1769531178.204,269,2,"(2.18, 36.0)"
1769531178.214,269,2,"(-1.85, 32.0)"
1769531178.224,269,2,"(-5.68, 32.0)"
1769531178.236,269,2,"(-70.95, 34.0)"
1769531178.246,269,2,"(-61.87, 40.0)"
1769531178.257,269,2,"(-40.32, 44.0)"
1769531178.268,269,2,"(16.1, 46.0)"
1769531178.279,269,2,"(22.05, 46.0)"
1769531178.289,269,2,"(-5.61, 46.0)"
1769531178.300,269,2,"(-5.87, 42.0)"
1769531178.310,269,2,"(6.1, 38.0)"
1769531178.321,269,2,"(8.64, 34.0)"
1769531178.332,269,2,"(52.75, 34.0)"
1769531178.342,269,2,"(-20.53, 36.0)"
1769531178.353,269,2,"(-59.31, 42.0)"
1769531178.364,269,2,"(22.31, 46.0)"
1769531178.374,269,2,"(0.87, 46.0)"
1769531178.386,269,2,"(17.15, 46.0)"
1769531178.396,269,2,"(4.07, 44.0)"
1769531178.406,269,2,"(-1.11, 38.0)"
1769531178.418,269,2,"(-2.57, 36.0)"
1769531178.428,269,2,"(33.42, 36.0)"
1769531178.438,269,2,"(95.59, 40.0)"
1769531178.448,269,2,"(33.44, 44.0)"
1769531178.458,269,2,"(3.43, 48.0)"
1769531178.469,269,2,"(7.52, 48.0)"
1769531178.480,269,2,"(10.18, 50.0)"
1769531178.491,269,2,"(6.19, 48.0)"
1769531178.502,269,2,"(-3.56, 42.0)"
1769531178.512,269,2,"(-6.64, 36.0)"
1769531184.519,269,3,"(-15.08, 30.0)"
1769531184.530,269,3,"(-10.0, 30.0)"
1769531184.541,269,3,"(-4.89, 30.0)"
1769531184.551,269,3,"(6.75, 28.0)"
1769531184.562,269,3,"(2.29, 20.0)"
1769531184.572,269,3,"(-1.94, 18.0)"
1769531184.584,269,3,"(-1.53, 16.0)"
1769531184.594,269,3,"(-0.27, 14.0)"
1769531184.605,269,3,"(0.68, 14.0)"
1769531184.616,269,3,"(0.12, 14.0)"
1769531184.626,269,3,"(-0.03, 14.0)"
1769531184.637,269,3,"(0.0, 14.0)"
1769531184.648,269,3,"(0.42, 14.0)"
1769531184.658,269,3,"(-0.1, 14.0)"
1769531184.669,269,3,"(0.23, 14.0)"
1769531184.679,269,3,"(34.81, 14.0)"
1769531184.689,269,3,"(111.04, 18.0)"
1769531184.700,269,3,"(57.56, 24.0)"
1769531184.710,269,3,"(-17.56, 28.0)"
1769531184.721,269,3,"(-25.88, 30.0)"
1769531184.732,269,3,"(6.77, 30.0)"
1769531184.742,269,3,"(5.81, 28.0)"
1769531184.753,269,3,"(-7.71, 24.0)"
1769531184.764,269,3,"(-3.18, 20.0)"
1769531184.775,269,3,"(0.28, 20.0)"
1769531184.787,269,3,"(1.25, 18.0)"
1769531184.796,269,3,"(0.27, 18.0)"
1769531184.806,269,3,"(-0.59, 18.0)"
1769531184.816,269,3,"(-0.06, 18.0)"
1769531184.827,269,3,"(0.24, 18.0)"
1769531184.838,269,3,"(-0.08, 18.0)"
1769531184.848,269,3,"(-0.08, 18.0)"
1769531184.859,269,3,"(5.68, 18.0)"
1769531184.869,269,3,"(50.81, 20.0)"
1769531184.880,269,3,"(34.59, 26.0)"
1769531184.891,269,3,"(43.88, 30.0)"
1769531184.902,269,3,"(0.57, 32.0)"
1769531184.913,269,3,"(-18.3, 32.0)"
1769531184.923,269,3,"(-0.65, 32.0)"
1769531184.935,269,3,"(6.88, 32.0)"
1769531184.946,269,3,"(3.15, 28.0)"
1769531184.957,269,3,"(-2.05, 22.0)"
1769531184.968,269,3,"(-1.33, 18.0)"
1769531184.978,269,3,"(0.76, 18.0)"
1769531184.988,269,3,"(0.44, 16.0)"
1769531184.999,269,3,"(-0.49, 16.0)"
1769531185.010,269,3,"(-0.06, 16.0)"
1769531185.021,269,3,"(0.15, 16.0)"
1769531185.031,269,3,"(-0.08, 16.0)"
1769531185.041,269,3,"(-0.28, 16.0)"
1769531185.052,269,3,"(-1.67, 16.0)"
1769531185.063,269,3,"(-63.43, 18.0)"
1769531185.073,269,3,"(-125.16, 24.0)"
1769531185.084,269,3,"(35.74, 28.0)"
1769531185.094,269,3,"(15.27, 30.0)"
1769531185.104,269,3,"(-26.45, 32.0)"
1769531185.115,269,3,"(-12.02, 32.0)"
1769531185.125,269,3,"(5.77, 32.0)"
1769531185.135,269,3,"(4.47, 24.0)"
1769531185.146,269,3,"(-2.17, 22.0)"
1769531185.156,269,3,"(-1.88, 20.0)"
1769531185.167,269,3,"(0.81, 18.0)"
1769531185.178,269,3,"(0.25, 18.0)"
1769531185.188,269,3,"(-0.24, 18.0)"
1769531185.199,269,3,"(-0.05, 18.0)"
1769531185.210,269,3,"(0.23, 18.0)"
1769531185.220,269,3,"(0.08, 18.0)"
1769531185.230,269,3,"(1.92, 18.0)"
1769531185.240,269,3,"(51.44, 20.0)"
1769531185.251,269,3,"(102.31, 24.0)"
1769531185.261,269,3,"(45.83, 30.0)"
1769531185.271,269,3,"(-15.29, 30.0)"
1769531185.282,269,3,"(9.6, 32.0)"
1769531185.292,269,3,"(10.69, 32.0)"
1769531185.303,269,3,"(4.61, 32.0)"
1769531185.314,269,3,"(-5.39, 32.0)"
1769531185.325,269,3,"(-0.85, 28.0)"
1769531185.335,269,3,"(0.53, 20.0)"
1769531185.345,269,3,"(-0.02, 18.0)"
1769531185.356,269,3,"(-0.84, 16.0)"
1769531185.367,269,3,"(0.05, 16.0)"
1769531185.376,269,3,"(0.38, 16.0)"
1769531185.387,269,3,"(-0.66, 14.0)"
1769531185.397,269,3,"(-0.22, 14.0)"
1769531185.407,269,3,"(0.01, 14.0)"
1769531185.418,269,3,"(0.03, 14.0)"
1769531185.429,269,3,"(35.86, 16.0)"
1769531185.440,269,3,"(17.11, 18.0)"
1769531185.452,269,3,"(55.97, 26.0)"
1769531185.462,269,3,"(14.37, 30.0)"
1769531185.473,269,3,"(-17.32, 30.0)"
1769531185.483,269,3,"(-8.95, 32.0)"
1769531185.494,269,3,"(5.77, 30.0)"
1769531185.505,269,3,"(-2.48, 26.0)"
1769531185.516,269,3,"(-2.16, 22.0)"
1769531185.526,269,3,"(2.15, 20.0)"
1769531185.537,269,3,"(1.76, 20.0)"
1769531185.548,269,3,"(0.25, 18.0)"
1769531185.558,269,3,"(-0.72, 18.0)"
1769531185.568,269,3,"(0.28, 18.0)"
1769531185.578,269,3,"(0.24, 18.0)"
1769531185.589,269,3,"(-0.08, 18.0)"
1769531185.599,269,3,"(-0.08, 18.0)"
1769531185.609,269,3,"(3.72, 18.0)"
1769531185.621,269,3,"(-18.62, 18.0)"
1769531185.631,269,3,"(-20.18, 22.0)"
1769531185.642,269,3,"(-73.99, 26.0)"
1769531185.654,269,3,"(-14.81, 30.0)"
1769531185.664,269,3,"(-2.87, 30.0)"
1769531185.674,269,3,"(10.22, 32.0)"
1769531185.685,269,3,"(-3.65, 32.0)"
1769531185.696,269,3,"(-4.03, 26.0)"
1769531185.707,269,3,"(1.01, 22.0)"
1769531185.718,269,3,"(1.78, 18.0)"
1769531185.729,269,3,"(0.64, 16.0)"
1769531185.740,269,3,"(-0.6, 16.0)"
1769531185.751,269,3,"(-0.45, 14.0)"
1769531185.761,269,3,"(0.25, 14.0)"
1769531185.772,269,3,"(-0.12, 14.0)"
1769531185.782,269,3,"(0.03, 14.0)"
1769531185.793,269,3,"(0.13, 14.0)"
1769531185.803,269,3,"(-0.11, 14.0)"
1769531185.814,269,3,"(-6.49, 14.0)"
1769531185.825,269,3,"(-63.71, 16.0)"
1769531185.835,269,3,"(-125.27, 22.0)"
1769531185.846,269,3,"(35.71, 26.0)"
1769531185.857,269,3,"(15.33, 30.0)"
1769531185.868,269,3,"(15.92, 30.0)"
1769531185.878,269,3,"(-12.02, 30.0)"
1769531185.888,269,3,"(-5.82, 24.0)"
1769531185.899,269,3,"(6.14, 22.0)"
1769531185.909,269,3,"(0.86, 20.0)"
1769531185.919,269,3,"(-1.88, 18.0)"
1769531185.930,269,3,"(-0.37, 18.0)"
1769531185.941,269,3,"(0.72, 18.0)"
1769531185.951,269,3,"(-0.24, 18.0)"
1769531185.961,269,3,"(-0.28, 18.0)"
1769531185.972,269,3,"(0.04, 18.0)"
1769531185.982,269,3,"(0.1, 18.0)"
1769531185.993,269,3,"(-0.06, 18.0)"
1769531186.004,269,3,"(1.21, 18.0)"
1769531186.015,269,3,"(39.24, 18.0)"
1769531186.026,269,3,"(-6.74, 20.0)"
1769531186.037,269,3,"(1.92, 24.0)"
1769531186.047,269,3,"(-12.26, 26.0)"
1769531186.058,269,3,"(-3.65, 26.0)"
1769531186.068,269,3,"(7.18, 28.0)"
1769531186.078,269,3,"(-1.9, 26.0)"
1769531186.088,269,3,"(-1.07, 22.0)"
1769531186.098,269,3,"(0.96, 16.0)"
1769531186.109,269,3,"(-0.8, 12.0)"
1769531186.120,269,3,"(-0.98, 12.0)"
1769531186.130,269,3,"(-0.4, 10.0)"
1769531186.141,269,3,"(0.32, 10.0)"
1769531186.152,269,3,"(0.18, 10.0)"
1769531186.163,269,3,"(-0.06, 10.0)"
1769531186.173,269,3,"(-0.2, 10.0)"
1769531186.183,269,3,"(-0.07, 10.0)"
1769531186.194,269,3,"(-0.16, 10.0)"
1769531186.205,269,3,"(-0.14, 10.0)"
1769531186.215,269,3,"(0.02, 10.0)"
1769531186.226,269,3,"(-0.06, 10.0)"
1769531186.237,269,3,"(-0.06, 10.0)"
1769531186.247,269,3,"(-0.08, 10.0)"
1769531186.258,269,3,"(17.24, 10.0)"
1769531186.268,269,3,"(-73.24, 12.0)"
1769531186.278,269,3,"(-64.1, 16.0)"
1769531186.290,269,3,"(-39.58, 18.0)"
1769531186.300,269,3,"(5.01, 16.0)"
1769531186.310,269,3,"(7.32, 18.0)"
1769531186.321,269,3,"(0.1, 18.0)"
1769531186.331,269,3,"(-7.88, 18.0)"
1769531186.341,269,3,"(2.34, 18.0)"
1769531186.352,269,3,"(2.13, 18.0)"
1769531186.363,269,3,"(-2.39, 18.0)"
1769531186.373,269,3,"(-0.91, 18.0)"
1769531186.383,269,3,"(0.72, 18.0)"
1769531186.394,269,3,"(0.51, 18.0)"
1769531186.404,269,3,"(-0.15, 18.0)"
1769531186.414,269,3,"(-0.18, 18.0)"
1769531186.426,269,3,"(0.15, 18.0)"
1769531186.436,269,3,"(0.02, 18.0)"
1769531186.447,269,3,"(-0.03, 18.0)"
1769531186.459,269,3,"(-0.03, 18.0)"
1769531186.469,269,3,"(4.33, 18.0)"
1769531186.480,269,3,"(64.5, 20.0)"
1769531186.490,269,3,"(81.48, 24.0)"
1769531186.501,269,3,"(1.07, 28.0)"
1769531186.511,269,3,"(-15.33, 30.0)"
1769531186.522,269,3,"(17.24, 28.0)"
1769531186.533,269,3,"(8.78, 22.0)"
1769531186.544,269,3,"(2.16, 18.0)"
1769531186.555,269,3,"(-0.25, 16.0)"
1769531186.566,269,3,"(-1.46, 14.0)"
1769531186.576,269,3,"(-0.21, 14.0)"
1769531186.586,269,3,"(0.62, 14.0)"
1769531186.597,269,3,"(-0.49, 14.0)"
1769531186.608,269,3,"(-0.08, 14.0)"
1769531186.618,269,3,"(0.05, 14.0)"
1769531186.628,269,3,"(-0.12, 14.0)"
1769531186.639,269,3,"(-0.06, 14.0)"
1769531186.650,269,3,"(0.11, 14.0)"
1769531186.661,269,3,"(-0.02, 14.0)"
1769531186.671,269,3,"(0.02, 14.0)"
1769531186.682,269,3,"(-0.34, 14.0)"
1769531186.693,269,3,"(-0.25, 14.0)"
1769531186.704,269,3,"(-0.05, 14.0)"
1769531186.714,269,3,"(-4.04, 14.0)"
1769531186.725,269,3,"(17.25, 16.0)"
1769531186.735,269,3,"(-125.24, 22.0)"
1769531186.746,269,3,"(-52.49, 22.0)"
1769531186.759,269,3,"(5.03, 18.0)"
1769531186.769,269,3,"(7.35, 18.0)"
1769531186.779,269,3,"(0.09, 18.0)"
1769531186.790,269,3,"(-7.9, 18.0)"
1769531186.801,269,3,"(-3.22, 18.0)"
1769531186.813,269,3,"(2.16, 18.0)"
1769531186.823,269,3,"(1.76, 18.0)"
1769531186.833,269,3,"(-0.8, 18.0)"
1769531186.844,269,3,"(-0.58, 18.0)"
1769531186.855,269,3,"(-0.05, 18.0)"
1769531186.866,269,3,"(0.07, 18.0)"
1769531186.876,269,3,"(0.08, 18.0)"
1769531186.887,269,3,"(-0.06, 18.0)"
1769531186.898,269,3,"(0.01, 18.0)"
1769531186.909,269,3,"(0.03, 18.0)"
1769531186.919,269,3,"(-0.02, 18.0)"
1769531186.930,269,3,"(0.13, 18.0)"
1769531186.941,269,3,"(-6.65, 18.0)"
1769531186.951,269,3,"(-81.98, 22.0)"
1769531186.964,269,3,"(-79.85, 26.0)"
1769531186.975,269,3,"(-14.92, 28.0)"
1769531186.985,269,3,"(22.19, 26.0)"
1769531186.998,269,3,"(10.5, 18.0)"
1769531187.009,269,3,"(-2.29, 16.0)"
1769531187.019,269,3,"(-3.35, 16.0)"
1769531187.030,269,3,"(1.09, 14.0)"
1769531187.041,269,3,"(2.18, 14.0)"
1769531187.052,269,3,"(0.82, 14.0)"
1769531187.063,269,3,"(-0.71, 14.0)"
1769531187.074,269,3,"(-0.75, 14.0)"
1769531187.085,269,3,"(-0.38, 14.0)"
1769531187.096,269,3,"(0.28, 14.0)"
1769531187.106,269,3,"(-0.01, 14.0)"
1769531187.117,269,3,"(-0.1, 14.0)"
1769531187.128,269,3,"(-0.15, 14.0)"
1769531187.138,269,3,"(-0.06, 14.0)"
1769531187.149,269,3,"(-0.22, 14.0)"
1769531187.160,269,3,"(-0.23, 14.0)"
1769531187.170,269,3,"(-0.14, 14.0)"
1769531187.181,269,3,"(35.74, 14.0)"
1769531187.191,269,3,"(84.14, 20.0)"
1769531187.202,269,3,"(56.02, 24.0)"
1769531187.212,269,3,"(9.03, 22.0)"
1769531187.223,269,3,"(-17.34, 20.0)"
1769531187.233,269,3,"(-8.96, 18.0)"
1769531187.244,269,3,"(5.78, 18.0)"
1769531187.254,269,3,"(-2.5, 18.0)"
1769531187.265,269,3,"(-2.17, 18.0)"
1769531187.275,269,3,"(2.16, 18.0)"
1769531187.285,269,3,"(1.76, 18.0)"
1769531187.296,269,3,"(-0.35, 18.0)"
1769531187.306,269,3,"(-0.72, 18.0)"
1769531187.317,269,3,"(0.28, 18.0)"
1769531187.327,269,3,"(0.24, 18.0)"
1769531187.337,269,3,"(-0.22, 18.0)"
1769531187.348,269,3,"(-0.08, 18.0)"
1769531187.359,269,3,"(0.01, 18.0)"
1769531187.369,269,3,"(0.02, 18.0)"
1769531187.381,269,3,"(5.8, 18.0)"
1769531187.391,269,3,"(65.34, 20.0)"
1769531187.402,269,3,"(61.75, 24.0)"
1769531187.413,269,3,"(-85.37, 30.0)"
1769531187.423,269,3,"(-14.66, 32.0)"
1769531187.433,269,3,"(4.04, 32.0)"
1769531187.443,269,3,"(9.69, 30.0)"
1769531187.454,269,3,"(-5.04, 24.0)"
1769531187.464,269,3,"(-4.78, 20.0)"
1769531187.475,269,3,"(0.45, 18.0)"
1769531187.485,269,3,"(2.22, 18.0)"
1769531187.496,269,3,"(-0.59, 16.0)"
1769531187.506,269,3,"(-0.49, 16.0)"
1769531187.517,269,3,"(0.57, 16.0)"
1769531187.528,269,3,"(0.4, 16.0)"
1769531192.637,269,4,"(-23.2, 92.0)"
1769531192.648,269,4,"(15.87, 90.0)"
1769531192.658,269,4,"(30.65, 88.0)"
1769531192.669,269,4,"(65.48, 86.0)"
1769531192.679,269,4,"(50.62, 86.0)"
1769531192.690,269,4,"(37.35, 84.0)"
1769531192.700,269,4,"(34.57, 82.0)"
1769531192.710,269,4,"(-30.49, 78.0)"
1769531192.721,269,4,"(7.98, 76.0)"
1769531192.732,269,4,"(0.36, 74.0)"
1769531192.742,269,4,"(-24.7, 74.0)"
1769531192.753,269,4,"(-75.48, 76.0)"
1769531192.763,269,4,"(-122.15, 80.0)"
1769531192.775,269,4,"(-56.61, 84.0)"
1769531192.785,269,4,"(28.46, 84.0)"
1769531192.796,269,4,"(-47.09, 86.0)"
1769531192.807,269,4,"(-77.63, 88.0)"
1769531192.818,269,4,"(58.93, 90.0)"
1769531192.829,269,4,"(-32.97, 84.0)"
1769531192.839,269,4,"(-55.22, 80.0)"
1769531192.852,269,4,"(66.2, 80.0)"
1769531192.862,269,4,"(-22.1, 78.0)"
1769531192.872,269,4,"(-30.49, 76.0)"
1769531192.883,269,4,"(75.04, 78.0)"
1769531192.894,269,4,"(35.77, 78.0)"
1769531192.905,269,4,"(-5.36, 78.0)"
1769531192.915,269,4,"(21.61, 78.0)"
1769531192.925,269,4,"(-5.29, 78.0)"
1769531192.936,269,4,"(78.82, 78.0)"
1769531192.946,269,4,"(48.57, 82.0)"
1769531192.957,269,4,"(-23.18, 84.0)"
1769531192.968,269,4,"(-0.24, 84.0)"
1769531192.979,269,4,"(80.56, 86.0)"
1769531192.989,269,4,"(-58.18, 88.0)"
1769531193.000,269,4,"(-62.18, 90.0)"
1769531193.010,269,4,"(71.25, 90.0)"
1769531193.021,269,4,"(29.21, 86.0)"
1769531193.031,269,4,"(-26.02, 80.0)"
1769531193.042,269,4,"(43.98, 80.0)"
1769531193.052,269,4,"(25.2, 80.0)"
1769531193.062,269,4,"(-33.33, 80.0)"
1769531193.073,269,4,"(19.95, 78.0)"
1769531193.083,269,4,"(-16.15, 76.0)"
1769531193.093,269,4,"(-17.15, 74.0)"
1769531193.104,269,4,"(14.3, 72.0)"
1769531193.114,269,4,"(-15.11, 70.0)"
1769531193.125,269,4,"(-30.66, 70.0)"
1769531193.137,269,4,"(49.62, 68.0)"
1769531193.146,269,4,"(87.79, 70.0)"
1769531193.156,269,4,"(-32.91, 70.0)"
1769531193.167,269,4,"(-13.27, 72.0)"
1769531193.178,269,4,"(27.36, 72.0)"
1769531193.188,269,4,"(-5.0, 68.0)"
1769531193.199,269,4,"(57.58, 64.0)"
1769531193.209,269,4,"(47.08, 62.0)"
1769531193.219,269,4,"(-31.38, 62.0)"
1769531193.230,269,4,"(-18.88, 58.0)"
1769531193.241,269,4,"(-29.48, 56.0)"
1769531193.251,269,4,"(46.28, 54.0)"
1769531193.262,269,4,"(127.46, 58.0)"
1769531193.274,269,4,"(67.27, 60.0)"
1769531193.284,269,4,"(-34.62, 60.0)"
1769531193.296,269,4,"(-61.93, 62.0)"
1769531193.306,269,4,"(13.04, 60.0)"
1769531193.317,269,4,"(10.47, 60.0)"
1769531193.327,269,4,"(4.8, 62.0)"
1769531193.338,269,4,"(13.88, 62.0)"
1769531193.349,269,4,"(-1.52, 64.0)"
1769531193.359,269,4,"(-25.63, 66.0)"
1769531193.370,269,4,"(-10.74, 66.0)"
1769531193.380,269,4,"(-2.62, 66.0)"
1769531193.390,269,4,"(-19.77, 64.0)"
1769531193.400,269,4,"(-47.66, 62.0)"
1769531193.411,269,4,"(35.48, 62.0)"
1769531193.422,269,4,"(37.95, 60.0)"
1769531193.432,269,4,"(27.28, 60.0)"
1769531193.443,269,4,"(-17.93, 60.0)"
1769531193.454,269,4,"(7.36, 60.0)"
1769531193.464,269,4,"(1.51, 58.0)"
1769531193.475,269,4,"(12.69, 56.0)"
1769531193.485,269,4,"(-32.93, 56.0)"
1769531193.496,269,4,"(-35.08, 56.0)"
1769531193.506,269,4,"(-11.85, 56.0)"
1769531193.517,269,4,"(23.92, 52.0)"
1769531193.528,269,4,"(7.91, 46.0)"
1769531193.538,269,4,"(-8.89, 44.0)"
1769531193.548,269,4,"(-36.82, 42.0)"
1769531193.559,269,4,"(40.19, 42.0)"
1769531193.569,269,4,"(27.37, 42.0)"
1769531193.580,269,4,"(6.75, 38.0)"
1769531193.591,269,4,"(-1.29, 38.0)"
1769531193.601,269,4,"(-13.5, 38.0)"
1769531193.612,269,4,"(-33.37, 36.0)"
1769531193.624,269,4,"(-3.43, 34.0)"
1769531193.634,269,4,"(3.11, 34.0)"
1769531193.644,269,4,"(29.86, 34.0)"
1769531193.655,269,4,"(47.42, 34.0)"
1769531193.666,269,4,"(-11.7, 34.0)"
1769531193.676,269,4,"(-38.03, 34.0)"
1769531193.687,269,4,"(50.61, 36.0)"
1769531193.697,269,4,"(38.39, 36.0)"
1769531193.707,269,4,"(21.62, 40.0)"
1769531193.717,269,4,"(-33.55, 42.0)"
1769531193.728,269,4,"(36.5, 42.0)"
1769531193.740,269,4,"(41.89, 44.0)"
1769531193.750,269,4,"(-3.68, 46.0)"
1769531193.760,269,4,"(-11.16, 46.0)"
1769531193.773,269,4,"(-0.35, 44.0)"
1769531193.783,269,4,"(1.0, 48.0)"
1769531193.794,269,4,"(4.61, 54.0)"
1769531193.805,269,4,"(-95.06, 58.0)"
1769531193.817,269,4,"(12.23, 58.0)"
1769531193.828,269,4,"(36.03, 58.0)"
1769531193.838,269,4,"(29.73, 60.0)"
1769531193.848,269,4,"(-131.56, 64.0)"
1769531193.859,269,4,"(-136.99, 72.0)"
1769531193.869,269,4,"(3.38, 74.0)"
1769531193.880,269,4,"(33.83, 76.0)"
1769531193.891,269,4,"(20.91, 80.0)"
1769531193.901,269,4,"(-98.12, 82.0)"
1769531193.913,269,4,"(-89.05, 86.0)"
1769531193.923,269,4,"(78.74, 88.0)"
1769531193.934,269,4,"(50.78, 90.0)"
1769531193.944,269,4,"(-32.26, 90.0)"
1769531193.954,269,4,"(14.56, 88.0)"
1769531193.966,269,4,"(7.81, 86.0)"
1769531193.976,269,4,"(-2.38, 86.0)"
1769531193.987,269,4,"(-27.69, 84.0)"
1769531193.998,269,4,"(-24.58, 82.0)"
1769531194.008,269,4,"(-37.96, 84.0)"
1769531194.018,269,4,"(5.8, 82.0)"
1769531194.029,269,4,"(-18.79, 82.0)"
1769531194.039,269,4,"(-9.75, 76.0)"
1769531194.050,269,4,"(9.35, 74.0)"
1769531194.060,269,4,"(28.54, 70.0)"
1769531194.071,269,4,"(-31.29, 68.0)"
1769531194.081,269,4,"(-31.08, 66.0)"
1769531194.091,269,4,"(17.02, 66.0)"
1769531194.103,269,4,"(-17.03, 62.0)"
1769531194.114,269,4,"(-23.94, 56.0)"
1769531194.125,269,4,"(5.54, 50.0)"
1769531194.137,269,4,"(17.42, 48.0)"
1769531194.148,269,4,"(-0.44, 46.0)"
1769531194.157,269,4,"(-16.05, 40.0)"
1769531194.168,269,4,"(26.85, 38.0)"
1769531194.178,269,4,"(32.38, 36.0)"
1769531194.189,269,4,"(6.95, 34.0)"
1769531194.199,269,4,"(-5.65, 30.0)"
1769531194.210,269,4,"(8.26, 30.0)"
1769531194.220,269,4,"(21.68, 30.0)"
1769531194.230,269,4,"(-12.56, 30.0)"
1769531194.241,269,4,"(-5.7, 30.0)"
1769531194.251,269,4,"(-4.71, 28.0)"
1769531194.261,269,4,"(7.96, 26.0)"
1769531194.272,269,4,"(4.81, 26.0)"
1769531194.283,269,4,"(15.36, 26.0)"
1769531194.293,269,4,"(8.71, 26.0)"
1769531194.304,269,4,"(-4.91, 26.0)"
1769531194.314,269,4,"(2.63, 24.0)"
1769531194.324,269,4,"(2.67, 24.0)"
1769531194.335,269,4,"(8.37, 22.0)"
1769531194.346,269,4,"(11.18, 22.0)"
1769531194.357,269,4,"(7.33, 22.0)"
1769531194.367,269,4,"(-4.89, 20.0)"
1769531194.377,269,4,"(11.75, 20.0)"
1769531194.388,269,4,"(7.92, 20.0)"
1769531194.399,269,4,"(-10.2, 20.0)"
1769531194.409,269,4,"(-15.22, 20.0)"
1769531194.419,269,4,"(15.87, 20.0)"
1769531194.430,269,4,"(10.84, 18.0)"
1769531194.440,269,4,"(-17.87, 18.0)"
1769531194.450,269,4,"(-14.46, 18.0)"
1769531194.460,269,4,"(-6.24, 18.0)"
1769531194.471,269,4,"(-8.57, 18.0)"
1769531194.482,269,4,"(25.28, 18.0)"
1769531194.492,269,4,"(15.99, 18.0)"
1769531194.503,269,4,"(-8.2, 18.0)"
1769531194.514,269,4,"(-10.83, 18.0)"
1769531194.525,269,4,"(18.89, 18.0)"
1769531194.535,269,4,"(32.74, 20.0)"
1769531194.546,269,4,"(-11.86, 20.0)"
1769531194.556,269,4,"(-20.36, 22.0)"
1769531194.567,269,4,"(6.79, 22.0)"
1769531194.578,269,4,"(20.43, 24.0)"
1769531194.589,269,4,"(-6.6, 24.0)"
1769531194.600,269,4,"(-24.25, 26.0)"
1769531194.611,269,4,"(4.01, 26.0)"
1769531194.622,269,4,"(5.21, 28.0)"
1769531194.633,269,4,"(9.61, 28.0)"
1769531194.643,269,4,"(3.37, 28.0)"
1769531194.653,269,4,"(-8.35, 28.0)"
1769531194.664,269,4,"(34.52, 30.0)"
1769531194.675,269,4,"(30.68, 30.0)"
1769531194.685,269,4,"(-2.36, 30.0)"
1769531194.696,269,4,"(-12.9, 30.0)"
1769531194.706,269,4,"(-17.63, 30.0)"
1769531194.718,269,4,"(19.4, 30.0)"
1769531194.728,269,4,"(32.88, 30.0)"
1769531194.739,269,4,"(-15.66, 30.0)"
1769531194.749,269,4,"(-15.51, 30.0)"
1769531194.760,269,4,"(-9.49, 30.0)"
1769531194.771,269,4,"(-11.51, 30.0)"
1769531194.782,269,4,"(-19.07, 30.0)"
1769531194.792,269,4,"(-1.83, 28.0)"
1769531194.803,269,4,"(10.4, 28.0)"
1769531194.814,269,4,"(23.12, 26.0)"
1769531194.825,269,4,"(-16.07, 26.0)"
1769531194.835,269,4,"(0.78, 26.0)"
1769531194.845,269,4,"(10.71, 24.0)"
1769531194.855,269,4,"(31.83, 24.0)"
1769531194.866,269,4,"(32.29, 24.0)"
1769531194.876,269,4,"(14.97, 24.0)"
1769531194.887,269,4,"(-10.48, 24.0)"
1769531194.898,269,4,"(-17.0, 24.0)"
1769531194.908,269,4,"(-18.25, 26.0)"
1769531194.919,269,4,"(-9.23, 26.0)"
1769531194.930,269,4,"(18.83, 26.0)"
1769531194.940,269,4,"(11.06, 26.0)"
1769531194.950,269,4,"(-6.45, 26.0)"
1769531194.961,269,4,"(6.42, 24.0)"
1769531194.972,269,4,"(2.89, 24.0)"
1769531194.984,269,4,"(5.62, 24.0)"
1769531194.994,269,4,"(5.54, 24.0)"
1769531195.005,269,4,"(0.57, 22.0)"
1769531195.016,269,4,"(-17.39, 22.0)"
1769531195.026,269,4,"(-15.72, 22.0)"
1769531195.037,269,4,"(18.48, 24.0)"
1769531195.047,269,4,"(20.7, 24.0)"
1769531195.057,269,4,"(-1.86, 24.0)"
1769531195.068,269,4,"(-1.37, 24.0)"
1769531195.078,269,4,"(4.25, 22.0)"
1769531195.088,269,4,"(-10.41, 24.0)"
1769531195.098,269,4,"(-0.53, 24.0)"
1769531195.108,269,4,"(9.4, 24.0)"
1769531195.119,269,4,"(26.46, 22.0)"
1769531195.129,269,4,"(7.36, 20.0)"
1769531195.139,269,4,"(4.24, 20.0)"
1769531195.151,269,4,"(4.22, 22.0)"
1769531195.161,269,4,"(-2.55, 22.0)"
1769531195.172,269,4,"(16.66, 22.0)"
1769531195.184,269,4,"(7.59, 20.0)"
1769531195.194,269,4,"(2.57, 20.0)"
1769531195.205,269,4,"(3.29, 20.0)"
1769531195.215,269,4,"(10.63, 20.0)"
1769531195.226,269,4,"(8.93, 20.0)"
1769531195.236,269,4,"(12.07, 20.0)"
1769531195.247,269,4,"(0.93, 20.0)"
1769531195.257,269,4,"(-4.49, 20.0)"
1769531195.268,269,4,"(-19.43, 20.0)"
1769531195.278,269,4,"(5.69, 20.0)"
1769531195.288,269,4,"(5.12, 20.0)"
1769531195.299,269,4,"(-3.31, 18.0)"
1769531195.310,269,4,"(-1.11, 18.0)"
1769531195.321,269,4,"(-4.4, 20.0)"
1769531195.332,269,4,"(-14.74, 20.0)"
1769531195.342,269,4,"(-14.64, 20.0)"
1769531195.353,269,4,"(22.99, 20.0)"
1769531195.363,269,4,"(15.07, 20.0)"
1769531195.373,269,4,"(-6.95, 20.0)"
1769531195.383,269,4,"(-7.54, 18.0)"
1769531195.394,269,4,"(14.9, 18.0)"
1769531195.405,269,4,"(20.71, 18.0)"
1769531195.415,269,4,"(3.09, 16.0)"
1769531195.426,269,4,"(-5.59, 16.0)"
1769531195.437,269,4,"(10.63, 16.0)"
1769531195.447,269,4,"(9.94, 16.0)"
1769531195.458,269,4,"(-5.64, 16.0)"
1769531195.468,269,4,"(5.5, 16.0)"
1769531195.479,269,4,"(0.88, 16.0)"
1769531195.489,269,4,"(-6.09, 16.0)"
1769531195.501,269,4,"(9.94, 16.0)"
1769531195.511,269,4,"(10.3, 16.0)"
1769531195.522,269,4,"(3.83, 16.0)"
1769531195.534,269,4,"(-14.35, 16.0)"
1769531195.544,269,4,"(-7.91, 16.0)"
1769531195.555,269,4,"(3.79, 16.0)"
1769531195.565,269,4,"(5.74, 16.0)"
1769531195.576,269,4,"(-7.52, 14.0)"
1769531195.587,269,4,"(-16.17, 14.0)"
1769531195.598,269,4,"(-1.51, 14.0)"
1769531195.608,269,4,"(-6.16, 14.0)"
1769531195.618,269,4,"(6.63, 14.0)"
1769531195.629,269,4,"(1.01, 14.0)"
1769531195.639,269,4,"(-9.13, 12.0)"
1769531195.649,269,4,"(-1.14, 12.0)"
1769531305.425,190,1,"(0.53, 0.0)"
1769531305.435,190,1,"(-1.18, 0.0)"
1769531305.446,190,1,"(-0.9, 0.0)"
1769531305.456,190,1,"(0.73, 0.0)"
1769531305.466,190,1,"(-2.22, 0.0)"
1769531305.477,190,1,"(-0.72, 0.0)"
1769531305.489,190,1,"(0.89, 0.0)"
1769531305.500,190,1,"(2.52, 0.0)"
1769531305.510,190,1,"(-2.6, 0.0)"
1769531305.521,190,1,"(0.31, 0.0)"
1769531305.531,190,1,"(2.14, 0.0)"
1769531305.541,190,1,"(2.0, 0.0)"
1769531305.551,190,1,"(-1.49, 0.0)"
1769531305.563,190,1,"(1.09, 0.0)"
1769531305.573,190,1,"(0.73, 0.0)"
1769531305.583,190,1,"(1.23, 0.0)"
1769531305.594,190,1,"(-0.02, 0.0)"
1769531305.605,190,1,"(-1.38, 0.0)"
1769531305.616,190,1,"(-0.91, 0.0)"
1769531305.626,190,1,"(-1.44, 0.0)"
1769531305.637,190,1,"(0.24, 0.0)"
1769531305.648,190,1,"(-5.01, 0.0)"
1769531305.658,190,1,"(1.82, 0.0)"
1769531305.668,190,1,"(0.14, 0.0)"
1769531305.679,190,1,"(0.54, 0.0)"
1769531305.690,190,1,"(-0.94, 0.0)"
1769531305.700,190,1,"(0.09, 0.0)"
1769531305.711,190,1,"(-2.07, 0.0)"
1769531305.721,190,1,"(-0.58, 0.0)"
1769531305.732,190,1,"(-1.11, 0.0)"
1769531305.743,190,1,"(0.31, 0.0)"
1769531305.753,190,1,"(-0.31, 0.0)"
1769531305.764,190,1,"(0.85, 0.0)"
1769531305.775,190,1,"(-1.05, 0.0)"
1769531305.785,190,1,"(0.89, 0.0)"
1769531305.796,190,1,"(2.47, 0.0)"
1769531305.806,190,1,"(1.12, 0.0)"
1769531305.817,190,1,"(-0.62, 0.0)"
1769531305.827,190,1,"(-2.38, 0.0)"
1769531305.838,190,1,"(0.29, 0.0)"
1769531305.850,190,1,"(1.23, 0.0)"
1769531305.860,190,1,"(1.76, 0.0)"
1769531305.871,190,1,"(0.47, 0.0)"
1769531305.881,190,1,"(3.03, 0.0)"
1769531305.892,190,1,"(1.15, 0.0)"
1769531305.903,190,1,"(0.36, 0.0)"
1769531305.914,190,1,"(-1.57, 0.0)"
1769531305.925,190,1,"(1.14, 0.0)"
1769531305.935,190,1,"(0.68, 0.0)"
1769531305.945,190,1,"(-0.28, 0.0)"
1769531305.955,190,1,"(-3.9, 0.0)"
1769531305.966,190,1,"(-1.09, 0.0)"
1769531305.976,190,1,"(1.51, 0.0)"
1769531305.987,190,1,"(-1.15, 0.0)"
1769531305.997,190,1,"(-0.5, 0.0)"
1769531306.008,190,1,"(-1.52, 0.0)"
1769531306.018,190,1,"(-2.16, 0.0)"
1769531306.028,190,1,"(-1.64, 0.0)"
1769531306.039,190,1,"(-0.62, 0.0)"
1769531306.050,190,1,"(-0.83, 0.0)"
1769531306.062,190,1,"(0.65, 0.0)"
1769531306.075,190,1,"(0.28, 0.0)"
1769531306.085,190,1,"(-1.6, 0.0)"
1769531306.096,190,1,"(1.72, 0.0)"
1769531306.108,190,1,"(1.44, 0.0)"
1769531306.119,190,1,"(1.15, 0.0)"
1769531306.129,190,1,"(-2.93, 0.0)"
1769531306.139,190,1,"(1.37, 0.0)"
1769531306.150,190,1,"(-1.01, 0.0)"
1769531306.160,190,1,"(1.85, 0.0)"
1769531306.171,190,1,"(-3.61, 0.0)"
1769531306.181,190,1,"(-0.78, 0.0)"
1769531306.191,190,1,"(-0.01, 0.0)"
1769531306.202,190,1,"(0.28, 0.0)"
1769531306.212,190,1,"(-2.64, 0.0)"
1769531306.224,190,1,"(0.66, 0.0)"
1769531306.234,190,1,"(-2.32, 0.0)"
1769531306.244,190,1,"(1.65, 0.0)"
1769531306.255,190,1,"(1.46, 0.0)"
1769531306.265,190,1,"(-0.21, 0.0)"
1769531306.275,190,1,"(1.07, 0.0)"
1769531306.285,190,1,"(-0.01, 0.0)"
1769531306.296,190,1,"(0.23, 0.0)"
1769531306.306,190,1,"(1.22, 0.0)"
1769531306.316,190,1,"(-0.22, 0.0)"
1769531306.328,190,1,"(0.01, 0.0)"
1769531306.339,190,1,"(-2.36, 0.0)"
1769531306.350,190,1,"(-3.34, 0.0)"
1769531306.361,190,1,"(-2.4, 0.0)"
1769531306.371,190,1,"(-1.56, 0.0)"
1769531306.382,190,1,"(-0.39, 0.0)"
1769531306.392,190,1,"(-0.94, 0.0)"
1769531306.402,190,1,"(-0.46, 0.0)"
1769531306.414,190,1,"(-1.12, 0.0)"
1769531306.425,190,1,"(-1.81, 0.0)"
1769531306.435,190,1,"(0.55, 0.0)"
1769531306.446,190,1,"(-1.45, 0.0)"
1769531306.457,190,1,"(-1.55, 0.0)"
1769531306.468,190,1,"(-0.62, 0.0)"
1769531306.478,190,1,"(1.98, 0.0)"
1769531306.490,190,1,"(-1.61, 0.0)"
1769531306.500,190,1,"(1.11, 0.0)"
1769531306.510,190,1,"(-0.79, 0.0)"
1769531306.521,190,1,"(1.35, 0.0)"
1769531306.531,190,1,"(0.9, 0.0)"
1769531306.541,190,1,"(1.12, 0.0)"
1769531306.552,190,1,"(-0.13, 0.0)"
1769531306.562,190,1,"(-0.25, 0.0)"
1769531306.573,190,1,"(1.03, 0.0)"
1769531306.583,190,1,"(-1.2, 0.0)"
1769531306.593,190,1,"(-2.11, 0.0)"
1769531306.607,190,1,"(-0.87, 0.0)"
1769531306.617,190,1,"(-0.06, 0.0)"
1769531306.627,190,1,"(-1.22, 0.0)"
1769531306.637,190,1,"(-2.08, 0.0)"
1769531306.647,190,1,"(-2.61, 0.0)"
1769531306.658,190,1,"(-0.03, 0.0)"
1769531306.669,190,1,"(-0.83, 0.0)"
1769531306.680,190,1,"(1.22, 0.0)"
1769531306.691,190,1,"(-0.91, 0.0)"
1769531306.702,190,1,"(0.18, 0.0)"
1769531306.713,190,1,"(-1.23, 0.0)"
1769531306.724,190,1,"(1.32, 0.0)"
1769531306.734,190,1,"(-1.0, 0.0)"
1769531306.744,190,1,"(-0.31, 0.0)"
1769531306.754,190,1,"(0.68, 0.0)"
1769531306.765,190,1,"(2.02, 0.0)"
1769531306.775,190,1,"(2.43, 0.0)"
1769531306.785,190,1,"(1.16, 0.0)"
1769531306.796,190,1,"(-0.75, 0.0)"
1769531306.808,190,1,"(-0.97, 0.0)"
1769531306.818,190,1,"(2.11, 0.0)"
1769531306.828,190,1,"(-0.76, 0.0)"
1769531306.839,190,1,"(1.52, 0.0)"
1769531306.850,190,1,"(0.59, 0.0)"
1769531306.860,190,1,"(0.47, 0.0)"
1769531306.871,190,1,"(-0.35, 0.0)"
1769531306.882,190,1,"(1.63, 0.0)"
1769531306.892,190,1,"(0.54, 0.0)"
1769531306.903,190,1,"(0.88, 0.0)"
1769531306.914,190,1,"(0.28, 0.0)"
1769531306.925,190,1,"(-0.66, 0.0)"
1769531306.935,190,1,"(-0.87, 0.0)"
1769531306.946,190,1,"(-0.2, 0.0)"
1769531306.957,190,1,"(-1.8, 0.0)"
1769531306.968,190,1,"(-2.87, 0.0)"
1769531306.978,190,1,"(0.57, 0.0)"
1769531306.989,190,1,"(-1.49, 0.0)"
1769531307.000,190,1,"(-0.3, 0.0)"
1769531307.010,190,1,"(1.16, 0.0)"
1769531307.020,190,1,"(0.83, 0.0)"
1769531307.031,190,1,"(-2.0, 0.0)"
1769531307.042,190,1,"(-0.63, 0.0)"
1769531307.052,190,1,"(1.61, 0.0)"
1769531307.063,190,1,"(3.76, 0.0)"
1769531307.074,190,1,"(1.17, 0.0)"
1769531307.084,190,1,"(0.44, 0.0)"
1769531307.094,190,1,"(-0.15, 0.0)"
1769531307.104,190,1,"(1.64, 0.0)"
1769531307.114,190,1,"(1.13, 0.0)"
1769531307.125,190,1,"(0.42, 0.0)"
1769531307.135,190,1,"(-2.22, 0.0)"
1769531307.146,190,1,"(-2.62, 0.0)"
1769531307.157,190,1,"(0.38, 0.0)"
1769531307.168,190,1,"(1.38, 0.0)"
1769531307.179,190,1,"(0.51, 0.0)"
1769531307.189,190,1,"(0.61, 0.0)"
1769531307.199,190,1,"(0.29, 0.0)"
1769531307.210,190,1,"(-1.92, 0.0)"
1769531307.222,190,1,"(-2.08, 0.0)"
1769531307.234,190,1,"(-1.53, 0.0)"
1769531307.244,190,1,"(-2.0, 0.0)"
1769531307.256,190,1,"(1.0, 0.0)"
1769531307.266,190,1,"(-0.14, 0.0)"
1769531307.276,190,1,"(-0.05, 0.0)"
1769531307.287,190,1,"(-1.12, 0.0)"
1769531307.298,190,1,"(-0.22, 0.0)"
1769531307.308,190,1,"(-0.76, 0.0)"
1769531307.319,190,1,"(0.19, 0.0)"
1769531307.329,190,1,"(-2.54, 0.0)"
1769531307.340,190,1,"(0.48, 0.0)"
1769531307.351,190,1,"(0.97, 0.0)"
1769531307.361,190,1,"(1.76, 0.0)"
1769531307.371,190,1,"(1.41, 0.0)"
1769531307.383,190,1,"(2.01, 0.0)"
1769531307.393,190,1,"(-0.23, 0.0)"
1769531307.404,190,1,"(0.45, 0.0)"
1769531307.414,190,1,"(-1.2, 0.0)"
1769531307.424,190,1,"(1.02, 0.0)"
1769531307.435,190,1,"(-0.96, 0.0)"
1769531307.445,190,1,"(-2.22, 0.0)"
1769531307.455,190,1,"(-0.66, 0.0)"
1769531307.465,190,1,"(-3.18, 0.0)"
1769531307.476,190,1,"(0.31, 0.0)"
1769531307.487,190,1,"(-1.73, 0.0)"
1769531307.498,190,1,"(0.59, 0.0)"
1769531307.508,190,1,"(1.43, 0.0)"
1769531307.518,190,1,"(-0.87, 0.0)"
1769531307.528,190,1,"(-0.91, 0.0)"
1769531307.540,190,1,"(-0.89, 0.0)"
1769531307.550,190,1,"(-2.3, 0.0)"
1769531307.560,190,1,"(1.08, 0.0)"
1769531307.571,190,1,"(-0.08, 0.0)"
1769531307.582,190,1,"(1.44, 0.0)"
1769531307.592,190,1,"(-0.84, 0.0)"
1769531307.602,190,1,"(-0.28, 0.0)"
1769531307.612,190,1,"(-2.09, 0.0)"
1769531307.623,190,1,"(3.02, 0.0)"
1769531307.633,190,1,"(2.91, 0.0)"
1769531307.644,190,1,"(-0.73, 0.0)"
1769531307.656,190,1,"(-1.54, 2.0)"
1769531307.668,190,1,"(-1.41, 2.0)"
1769531307.678,190,1,"(1.98, 2.0)"
1769531307.689,190,1,"(-2.16, 2.0)"
1769531307.699,190,1,"(0.93, 2.0)"
1769531307.710,190,1,"(-0.24, 0.0)"
1769531307.720,190,1,"(0.79, 0.0)"
1769531307.731,190,1,"(0.59, 0.0)"
1769531307.742,190,1,"(1.17, 0.0)"
1769531307.752,190,1,"(2.33, 0.0)"
1769531307.762,190,1,"(1.13, 0.0)"
1769531307.773,190,1,"(0.38, 0.0)"
1769531307.784,190,1,"(0.1, 0.0)"
1769531307.794,190,1,"(1.09, 0.0)"
1769531307.805,190,1,"(4.34, 0.0)"
1769531307.815,190,1,"(2.33, 0.0)"
1769531307.825,190,1,"(-0.37, 0.0)"
1769531307.836,190,1,"(-0.31, 0.0)"
1769531307.846,190,1,"(0.9, 0.0)"
1769531307.857,190,1,"(0.07, 0.0)"
1769531307.867,190,1,"(1.33, 0.0)"
1769531307.878,190,1,"(3.29, 0.0)"
1769531307.890,190,1,"(1.84, 0.0)"
1769531307.900,190,1,"(3.4, 0.0)"
1769531307.911,190,1,"(-1.87, 0.0)"
1769531307.922,190,1,"(-3.55, 0.0)"
1769531307.932,190,1,"(-3.0, 0.0)"
1769531307.943,190,1,"(1.64, 0.0)"
1769531307.954,190,1,"(0.94, 0.0)"
1769531307.964,190,1,"(2.1, 0.0)"
1769531307.975,190,1,"(2.79, 2.0)"
1769531307.985,190,1,"(1.69, 2.0)"
1769531307.996,190,1,"(2.13, 2.0)"
1769531308.008,190,1,"(-0.59, 2.0)"
1769531308.019,190,1,"(-1.97, 2.0)"
1769531308.030,190,1,"(-0.62, 2.0)"
1769531308.041,190,1,"(-0.1, 2.0)"
1769531308.050,190,1,"(-1.58, 2.0)"
1769531308.061,190,1,"(0.52, 0.0)"
1769531308.073,190,1,"(0.1, 0.0)"
1769531308.083,190,1,"(-1.98, 0.0)"
1769531308.094,190,1,"(0.33, 0.0)"
1769531308.104,190,1,"(-0.69, 0.0)"
1769531308.114,190,1,"(-0.9, 0.0)"
1769531308.124,190,1,"(-0.87, 0.0)"
1769531308.135,190,1,"(0.01, 0.0)"
1769531308.145,190,1,"(1.04, 0.0)"
1769531308.155,190,1,"(-2.95, 0.0)"
1769531308.166,190,1,"(-3.14, 0.0)"
1769531308.176,190,1,"(0.42, 0.0)"
1769531308.187,190,1,"(0.95, 0.0)"
1769531308.198,190,1,"(-2.0, 0.0)"
1769531308.208,190,1,"(-2.07, 0.0)"
1769531308.218,190,1,"(-1.05, 0.0)"
1769531308.228,190,1,"(0.46, 0.0)"
1769531308.239,190,1,"(0.22, 0.0)"
1769531308.250,190,1,"(1.46, 0.0)"
1769531308.260,190,1,"(1.33, 0.0)"
1769531308.271,190,1,"(1.49, 0.0)"
1769531308.282,190,1,"(1.75, 0.0)"
1769531308.292,190,1,"(-0.7, 0.0)"
1769531308.303,190,1,"(0.66, 0.0)"
1769531308.314,190,1,"(-3.0, 0.0)"
1769531308.326,190,1,"(-0.94, 0.0)"
1769531308.337,190,1,"(-1.18, 0.0)"
1769531308.348,190,1,"(-0.46, 0.0)"
1769531308.359,190,1,"(0.52, 0.0)"
1769531308.369,190,1,"(2.65, 0.0)"
1769531308.379,190,1,"(2.73, 0.0)"
1769531308.389,190,1,"(-2.62, 2.0)"
1769531308.400,190,1,"(-2.24, 2.0)"
1769531308.411,190,1,"(-1.06, 2.0)"
1769531308.421,190,1,"(-0.71, 2.0)"
1769531310.632,190,2,"(-23.53, 30.0)"
1769531310.641,190,2,"(-11.88, 28.0)"
1769531310.652,190,2,"(9.11, 26.0)"
1769531310.663,190,2,"(4.66, 26.0)"
1769531310.673,190,2,"(-19.04, 26.0)"
1769531310.684,190,2,"(77.02, 30.0)"
1769531310.695,190,2,"(61.62, 32.0)"
1769531310.705,190,2,"(25.87, 32.0)"
1769531310.715,190,2,"(31.84, 32.0)"
1769531310.725,190,2,"(64.91, 36.0)"
1769531310.737,190,2,"(25.85, 40.0)"
1769531310.748,190,2,"(13.02, 42.0)"
1769531310.758,190,2,"(-35.43, 42.0)"
1769531310.769,190,2,"(-67.8, 44.0)"
1769531310.780,190,2,"(-47.14, 46.0)"
1769531310.791,190,2,"(-50.38, 48.0)"
1769531310.802,190,2,"(37.59, 48.0)"
1769531310.812,190,2,"(-2.24, 48.0)"
1769531310.822,190,2,"(9.49, 48.0)"
1769531310.833,190,2,"(11.11, 48.0)"
1769531310.843,190,2,"(1.15, 46.0)"
1769531310.853,190,2,"(-29.72, 48.0)"
1769531310.864,190,2,"(14.25, 50.0)"
1769531310.875,190,2,"(-44.33, 50.0)"
1769531310.885,190,2,"(-30.16, 52.0)"
1769531310.897,190,2,"(11.96, 50.0)"
1769531310.906,190,2,"(2.0, 50.0)"
1769531310.917,190,2,"(-1.03, 50.0)"
1769531310.927,190,2,"(10.45, 50.0)"
1769531310.939,190,2,"(7.53, 46.0)"
1769531310.949,190,2,"(-24.77, 44.0)"
1769531310.959,190,2,"(-60.84, 44.0)"
1769531310.969,190,2,"(16.33, 46.0)"
1769531310.980,190,2,"(-26.27, 44.0)"
1769531310.991,190,2,"(3.1, 42.0)"
1769531311.001,190,2,"(43.08, 40.0)"
1769531311.013,190,2,"(-12.68, 40.0)"
1769531311.023,190,2,"(19.9, 40.0)"
1769531311.033,190,2,"(12.95, 38.0)"
1769531311.045,190,2,"(-16.43, 36.0)"
1769531311.055,190,2,"(-28.67, 34.0)"
1769531311.066,190,2,"(-0.21, 34.0)"
1769531311.078,190,2,"(-23.18, 34.0)"
1769531311.088,190,2,"(5.48, 34.0)"
1769531311.098,190,2,"(46.63, 36.0)"
1769531311.108,190,2,"(18.08, 36.0)"
1769531311.120,190,2,"(27.86, 36.0)"
1769531311.130,190,2,"(-5.16, 36.0)"
1769531311.140,190,2,"(1.63, 34.0)"
1769531311.150,190,2,"(18.11, 36.0)"
1769531311.162,190,2,"(0.88, 36.0)"
1769531311.172,190,2,"(-6.73, 36.0)"
1769531311.183,190,2,"(-42.61, 40.0)"
1769531311.195,190,2,"(-5.16, 40.0)"
1769531311.205,190,2,"(-20.86, 40.0)"
1769531311.215,190,2,"(56.61, 42.0)"
1769531311.226,190,2,"(25.3, 40.0)"
1769531311.237,190,2,"(-11.1, 40.0)"
1769531311.248,190,2,"(2.39, 40.0)"
1769531311.259,190,2,"(17.78, 40.0)"
1769531311.269,190,2,"(-31.02, 38.0)"
1769531311.280,190,2,"(-3.21, 38.0)"
1769531311.290,190,2,"(-20.81, 38.0)"
1769531311.300,190,2,"(-36.86, 40.0)"
1769531311.311,190,2,"(5.05, 40.0)"
1769531311.321,190,2,"(-52.3, 42.0)"
1769531311.331,190,2,"(-2.02, 42.0)"
1769531311.342,190,2,"(-37.73, 44.0)"
1769531311.352,190,2,"(2.15, 44.0)"
1769531311.363,190,2,"(-22.56, 44.0)"
1769531311.373,190,2,"(0.51, 40.0)"
1769531311.384,190,2,"(34.71, 40.0)"
1769531311.394,190,2,"(9.28, 42.0)"
1769531311.405,190,2,"(7.16, 42.0)"
1769531311.415,190,2,"(-11.04, 42.0)"
1769531311.426,190,2,"(-6.11, 42.0)"
1769531311.437,190,2,"(0.03, 40.0)"
1769531311.447,190,2,"(24.53, 38.0)"
1769531311.457,190,2,"(-36.51, 40.0)"
1769531311.468,190,2,"(-32.09, 38.0)"
1769531311.479,190,2,"(1.61, 38.0)"
1769531311.489,190,2,"(27.44, 34.0)"
1769531311.499,190,2,"(-12.1, 36.0)"
1769531311.509,190,2,"(-20.94, 36.0)"
1769531311.520,190,2,"(-6.28, 36.0)"
1769531311.530,190,2,"(-22.14, 36.0)"
1769531311.540,190,2,"(-25.83, 36.0)"
1769531311.551,190,2,"(-15.94, 36.0)"
1769531311.561,190,2,"(-8.82, 34.0)"
1769531311.571,190,2,"(7.08, 32.0)"
1769531311.582,190,2,"(-10.12, 30.0)"
1769531311.593,190,2,"(-18.4, 30.0)"
1769531311.603,190,2,"(-28.76, 30.0)"
1769531311.614,190,2,"(-1.56, 28.0)"
1769531311.625,190,2,"(7.54, 28.0)"
1769531311.635,190,2,"(15.62, 30.0)"
1769531311.645,190,2,"(23.53, 28.0)"
1769531311.656,190,2,"(13.29, 28.0)"
1769531311.666,190,2,"(-14.88, 28.0)"
1769531311.676,190,2,"(-15.07, 28.0)"
1769531311.686,190,2,"(-2.41, 28.0)"
1769531311.698,190,2,"(-27.3, 28.0)"
1769531311.708,190,2,"(27.14, 28.0)"
1769531311.718,190,2,"(3.39, 28.0)"
1769531311.728,190,2,"(0.74, 28.0)"
1769531311.740,190,2,"(-0.55, 28.0)"
1769531311.750,190,2,"(-11.08, 26.0)"
1769531311.761,190,2,"(-2.69, 26.0)"
1769531311.773,190,2,"(-34.62, 26.0)"
1769531311.785,190,2,"(-20.44, 28.0)"
1769531311.795,190,2,"(-22.87, 28.0)"
1769531311.806,190,2,"(38.14, 28.0)"
1769531311.817,190,2,"(-35.95, 30.0)"
1769531311.827,190,2,"(28.45, 30.0)"
1769531311.838,190,2,"(7.93, 32.0)"
1769531311.850,190,2,"(-0.08, 32.0)"
1769531311.861,190,2,"(18.8, 32.0)"
1769531311.872,190,2,"(-24.87, 32.0)"
1769531311.882,190,2,"(2.6, 32.0)"
1769531311.893,190,2,"(-13.51, 32.0)"
1769531311.903,190,2,"(5.53, 34.0)"
1769531311.914,190,2,"(-17.87, 34.0)"
1769531311.925,190,2,"(11.96, 34.0)"
1769531311.935,190,2,"(8.36, 34.0)"
1769531311.945,190,2,"(28.19, 34.0)"
1769531311.955,190,2,"(32.14, 36.0)"
1769531311.965,190,2,"(-10.11, 34.0)"
1769531311.976,190,2,"(29.11, 34.0)"
1769531311.987,190,2,"(-4.65, 36.0)"
1769531311.997,190,2,"(-25.96, 38.0)"
1769531312.007,190,2,"(-18.15, 38.0)"
1769531312.018,190,2,"(5.64, 38.0)"
1769531312.029,190,2,"(32.36, 36.0)"
1769531312.039,190,2,"(-22.48, 38.0)"
1769531312.049,190,2,"(-3.2, 38.0)"
1769531312.060,190,2,"(-4.65, 36.0)"
1769531312.070,190,2,"(-5.48, 34.0)"
1769531312.081,190,2,"(13.74, 32.0)"
1769531312.093,190,2,"(-9.71, 32.0)"
1769531312.103,190,2,"(-20.05, 32.0)"
1769531312.114,190,2,"(13.48, 32.0)"
1769531312.124,190,2,"(-12.05, 32.0)"
1769531312.134,190,2,"(-23.41, 34.0)"
1769531312.144,190,2,"(-49.85, 34.0)"
1769531312.155,190,2,"(-11.78, 34.0)"
1769531312.165,190,2,"(25.52, 32.0)"
1769531312.176,190,2,"(-29.34, 32.0)"
1769531312.186,190,2,"(-2.45, 32.0)"
1769531312.197,190,2,"(6.63, 32.0)"
1769531312.208,190,2,"(36.19, 34.0)"
1769531312.218,190,2,"(22.19, 32.0)"
1769531312.228,190,2,"(31.13, 34.0)"
1769531312.239,190,2,"(28.68, 32.0)"
1769531312.250,190,2,"(23.36, 32.0)"
1769531312.260,190,2,"(-1.08, 32.0)"
1769531312.271,190,2,"(-10.47, 32.0)"
1769531312.281,190,2,"(19.74, 32.0)"
1769531312.291,190,2,"(39.83, 32.0)"
1769531312.302,190,2,"(25.0, 32.0)"
1769531312.313,190,2,"(-14.56, 32.0)"
1769531312.323,190,2,"(-41.25, 34.0)"
1769531312.333,190,2,"(-17.55, 34.0)"
1769531312.345,190,2,"(-3.46, 34.0)"
1769531312.355,190,2,"(10.32, 34.0)"
1769531312.365,190,2,"(0.3, 34.0)"
1769531312.377,190,2,"(11.62, 34.0)"
1769531312.389,190,2,"(3.02, 32.0)"
1769531312.400,190,2,"(23.23, 30.0)"
1769531312.411,190,2,"(-9.42, 30.0)"
1769531312.421,190,2,"(-9.88, 30.0)"
1769531312.432,190,2,"(-1.73, 30.0)"
1769531312.442,190,2,"(13.35, 30.0)"
1769531312.453,190,2,"(-12.81, 28.0)"
1769531312.463,190,2,"(-4.46, 28.0)"
1769531312.475,190,2,"(-20.13, 30.0)"
1769531312.485,190,2,"(8.8, 30.0)"
1769531312.496,190,2,"(15.07, 30.0)"
1769531312.506,190,2,"(23.02, 30.0)"
1769531312.517,190,2,"(41.44, 30.0)"
1769531312.528,190,2,"(33.32, 32.0)"
1769531312.539,190,2,"(19.01, 32.0)"
1769531312.549,190,2,"(28.96, 32.0)"
1769531312.560,190,2,"(3.47, 32.0)"
1769531312.571,190,2,"(-27.54, 32.0)"
1769531312.582,190,2,"(-10.18, 30.0)"
1769531312.592,190,2,"(-18.68, 30.0)"
1769531312.603,190,2,"(-14.1, 32.0)"
1769531312.614,190,2,"(-3.36, 30.0)"
1769531312.625,190,2,"(0.31, 30.0)"
1769531312.635,190,2,"(19.01, 30.0)"
1769531312.646,190,2,"(5.72, 30.0)"
1769531312.656,190,2,"(-10.88, 30.0)"
1769531312.666,190,2,"(19.95, 28.0)"
1769531312.677,190,2,"(21.7, 28.0)"
1769531312.689,190,2,"(0.88, 30.0)"
1769531312.699,190,2,"(-34.38, 30.0)"
1769531312.710,190,2,"(-13.61, 30.0)"
1769531312.720,190,2,"(-23.04, 32.0)"
1769531312.731,190,2,"(23.29, 32.0)"
1769531312.743,190,2,"(23.36, 32.0)"
1769531312.753,190,2,"(16.59, 32.0)"
1769531312.764,190,2,"(23.0, 32.0)"
1769531312.775,190,2,"(17.67, 30.0)"
1769531312.785,190,2,"(-5.46, 30.0)"
1769531312.795,190,2,"(-7.27, 28.0)"
1769531312.806,190,2,"(-8.38, 26.0)"
1769531312.817,190,2,"(8.85, 26.0)"
1769531312.827,190,2,"(-10.46, 26.0)"
1769531312.838,190,2,"(35.49, 26.0)"
1769531312.848,190,2,"(33.66, 28.0)"
1769531312.859,190,2,"(37.08, 30.0)"
1769531312.869,190,2,"(31.24, 32.0)"
1769531312.880,190,2,"(0.86, 32.0)"
1769531312.891,190,2,"(6.11, 32.0)"
1769531312.902,190,2,"(18.58, 32.0)"
1769531312.912,190,2,"(4.92, 32.0)"
1769531312.923,190,2,"(1.17, 32.0)"
1769531312.933,190,2,"(6.35, 32.0)"
1769531312.943,190,2,"(-5.8, 30.0)"
1769531312.955,190,2,"(-36.19, 32.0)"
1769531312.965,190,2,"(-20.93, 32.0)"
1769531312.975,190,2,"(-8.75, 30.0)"
1769531312.985,190,2,"(17.4, 28.0)"
1769531312.996,190,2,"(22.46, 28.0)"
1769531313.006,190,2,"(20.28, 28.0)"
1769531313.016,190,2,"(21.68, 28.0)"
1769531313.027,190,2,"(-3.71, 28.0)"
1769531313.039,190,2,"(-2.24, 28.0)"
1769531313.050,190,2,"(-7.86, 28.0)"
1769531313.060,190,2,"(11.61, 28.0)"
1769531313.071,190,2,"(-7.71, 28.0)"
1769531313.081,190,2,"(-8.64, 28.0)"
1769531313.091,190,2,"(-19.96, 28.0)"
1769531313.102,190,2,"(-1.18, 26.0)"
1769531313.112,190,2,"(13.47, 26.0)"
1769531313.123,190,2,"(11.61, 24.0)"
1769531313.133,190,2,"(-14.9, 22.0)"
1769531313.144,190,2,"(-13.64, 24.0)"
1769531313.154,190,2,"(-11.59, 24.0)"
1769531313.165,190,2,"(3.18, 24.0)"
1769531313.175,190,2,"(2.8, 24.0)"
1769531313.185,190,2,"(-8.97, 26.0)"
1769531313.195,190,2,"(-21.89, 26.0)"
1769531313.206,190,2,"(0.56, 26.0)"
1769531313.217,190,2,"(21.85, 24.0)"
1769531313.228,190,2,"(35.51, 24.0)"
1769531313.239,190,2,"(-10.9, 26.0)"
1769531313.249,190,2,"(-16.05, 26.0)"
1769531313.260,190,2,"(20.27, 24.0)"
1769531313.271,190,2,"(34.94, 26.0)"
1769531313.281,190,2,"(15.42, 26.0)"
1769531313.292,190,2,"(-7.79, 26.0)"
1769531313.302,190,2,"(-6.31, 26.0)"
1769531313.312,190,2,"(8.02, 26.0)"
1769531313.323,190,2,"(-31.94, 26.0)"
1769531313.334,190,2,"(-6.11, 26.0)"
1769531313.345,190,2,"(17.77, 26.0)"
1769531313.357,190,2,"(5.35, 26.0)"
1769531313.367,190,2,"(-1.63, 26.0)"
1769531313.378,190,2,"(18.65, 26.0)"
1769531313.389,190,2,"(5.91, 28.0)"
1769531313.399,190,2,"(13.18, 26.0)"
1769531313.410,190,2,"(-10.76, 26.0)"
1769531313.421,190,2,"(-14.32, 26.0)"
1769531313.432,190,2,"(-15.15, 26.0)"
1769531313.442,190,2,"(-4.84, 26.0)"
1769531313.452,190,2,"(-6.33, 24.0)"
1769531313.462,190,2,"(-4.58, 24.0)"
1769531313.474,190,2,"(7.13, 24.0)"
1769531313.484,190,2,"(-2.44, 24.0)"
1769531313.494,190,2,"(19.69, 24.0)"
1769531313.505,190,2,"(25.81, 24.0)"
1769531313.515,190,2,"(17.31, 24.0)"
1769531313.526,190,2,"(-16.51, 24.0)"
1769531313.537,190,2,"(-12.91, 22.0)"
1769531313.548,190,2,"(-11.62, 22.0)"
1769531313.559,190,2,"(7.98, 24.0)"
1769531313.569,190,2,"(18.93, 24.0)"
1769531313.579,190,2,"(-1.5, 24.0)"
1769531313.590,190,2,"(-11.67, 22.0)"
1769531313.601,190,2,"(-8.21, 22.0)"
1769531313.612,190,2,"(-4.39, 20.0)"
1769531313.622,190,2,"(-14.95, 20.0)"
1769531313.633,190,2,"(-29.43, 22.0)"
1769531316.527,190,3,"(-0.65, 0.0)"
1769531316.537,190,3,"(-0.18, 0.0)"
1769531316.547,190,3,"(-1.59, 0.0)"
1769531316.558,190,3,"(2.64, 0.0)"
1769531316.570,190,3,"(0.27, 0.0)"
1769531316.580,190,3,"(-2.75, 0.0)"
1769531316.591,190,3,"(-2.49, 0.0)"
1769531316.602,190,3,"(2.01, 0.0)"
1769531316.612,190,3,"(2.69, 0.0)"
1769531316.623,190,3,"(-1.72, 0.0)"
1769531316.633,190,3,"(-2.74, 0.0)"
1769531316.643,190,3,"(2.39, 0.0)"
1769531316.653,190,3,"(0.37, 2.0)"
1769531316.664,190,3,"(2.43, 2.0)"
1769531316.674,190,3,"(2.52, 0.0)"
1769531316.685,190,3,"(0.77, 2.0)"
1769531316.696,190,3,"(2.89, 2.0)"
1769531316.706,190,3,"(2.03, 2.0)"
1769531316.717,190,3,"(2.4, 2.0)"
1769531316.727,190,3,"(-0.9, 2.0)"
1769531316.739,190,3,"(-2.15, 2.0)"
1769531316.749,190,3,"(0.79, 2.0)"
1769531316.761,190,3,"(0.28, 2.0)"
1769531316.771,190,3,"(1.5, 2.0)"
1769531316.782,190,3,"(-2.19, 2.0)"
1769531316.793,190,3,"(-1.61, 2.0)"
1769531316.803,190,3,"(1.76, 2.0)"
1769531316.814,190,3,"(2.72, 2.0)"
1769531316.825,190,3,"(1.4, 2.0)"
1769531316.836,190,3,"(-2.03, 2.0)"
1769531316.846,190,3,"(-1.27, 2.0)"
1769531316.856,190,3,"(-0.18, 2.0)"
1769531316.866,190,3,"(-0.41, 2.0)"
1769531316.877,190,3,"(1.31, 2.0)"
1769531316.888,190,3,"(-0.95, 2.0)"
1769531316.898,190,3,"(-0.17, 2.0)"
1769531316.910,190,3,"(-0.28, 2.0)"
1769531316.921,190,3,"(-1.23, 2.0)"
1769531316.932,190,3,"(-0.28, 0.0)"
1769531316.943,190,3,"(0.0, 0.0)"
1769531316.953,190,3,"(0.54, 0.0)"
1769531316.963,190,3,"(-1.19, 0.0)"
1769531316.973,190,3,"(-2.03, 0.0)"
1769531316.984,190,3,"(-1.93, 0.0)"
1769531316.994,190,3,"(-0.63, 0.0)"
1769531317.005,190,3,"(-0.34, 0.0)"
1769531317.015,190,3,"(1.29, 0.0)"
1769531317.025,190,3,"(0.36, 0.0)"
1769531317.035,190,3,"(4.92, 0.0)"
1769531317.046,190,3,"(2.98, 0.0)"
1769531317.056,190,3,"(2.17, 0.0)"
1769531317.066,190,3,"(0.51, 0.0)"
1769531317.077,190,3,"(-1.16, 0.0)"
1769531317.089,190,3,"(-3.01, 0.0)"
1769531317.099,190,3,"(-3.09, 0.0)"
1769531317.111,190,3,"(-1.59, 0.0)"
1769531317.122,190,3,"(-0.9, 0.0)"
1769531317.132,190,3,"(-0.53, 0.0)"
1769531317.143,190,3,"(-3.43, 0.0)"
1769531317.153,190,3,"(-2.9, 0.0)"
1769531317.164,190,3,"(4.33, 0.0)"
1769531317.175,190,3,"(3.89, 0.0)"
1769531317.185,190,3,"(1.23, 2.0)"
1769531317.195,190,3,"(1.16, 2.0)"
1769531317.205,190,3,"(-1.19, 2.0)"
1769531317.216,190,3,"(-0.93, 2.0)"
1769531317.226,190,3,"(-0.77, 2.0)"
1769531317.236,190,3,"(-2.0, 2.0)"
1769531317.247,190,3,"(-1.75, 2.0)"
1769531317.258,190,3,"(0.57, 2.0)"
1769531317.268,190,3,"(0.72, 2.0)"
1769531317.279,190,3,"(-0.31, 2.0)"
1769531317.289,190,3,"(-0.07, 0.0)"
1769531317.300,190,3,"(0.13, 0.0)"
1769531317.312,190,3,"(2.7, 0.0)"
1769531317.322,190,3,"(-0.23, 0.0)"
1769531317.333,190,3,"(1.66, 0.0)"
1769531317.344,190,3,"(-1.0, 0.0)"
1769531317.354,190,3,"(-3.18, 0.0)"
1769531317.364,190,3,"(2.68, 0.0)"
1769531317.375,190,3,"(0.0, 0.0)"
1769531317.385,190,3,"(0.43, 0.0)"
1769531317.396,190,3,"(2.61, 2.0)"
1769531317.406,190,3,"(-1.23, 0.0)"
1769531317.417,190,3,"(2.28, 0.0)"
1769531317.428,190,3,"(-0.06, 0.0)"
1769531317.438,190,3,"(-4.7, 0.0)"
1769531317.449,190,3,"(-4.59, 0.0)"
1769531317.460,190,3,"(1.6, 2.0)"
1769531317.471,190,3,"(-2.48, 2.0)"
1769531317.482,190,3,"(-2.98, 2.0)"
1769531317.492,190,3,"(0.62, 2.0)"
1769531317.502,190,3,"(0.79, 2.0)"
1769531317.512,190,3,"(0.62, 2.0)"
1769531317.523,190,3,"(-0.53, 2.0)"
1769531317.533,190,3,"(4.04, 2.0)"
1769531317.544,190,3,"(1.05, 2.0)"
1769531317.554,190,3,"(-0.82, 2.0)"
1769531317.564,190,3,"(0.5, 2.0)"
1769531317.575,190,3,"(-1.31, 2.0)"
1769531317.585,190,3,"(4.01, 2.0)"
1769531317.595,190,3,"(1.2, 2.0)"
1769531317.605,190,3,"(-1.29, 2.0)"
1769531317.615,190,3,"(-3.54, 2.0)"
1769531317.627,190,3,"(3.97, 2.0)"
1769531317.636,190,3,"(-0.24, 2.0)"
1769531317.647,190,3,"(-0.58, 2.0)"
1769531317.657,190,3,"(-5.62, 2.0)"
1769531317.668,190,3,"(-6.7, 2.0)"
1769531317.679,190,3,"(2.93, 2.0)"
1769531317.689,190,3,"(2.73, 2.0)"
1769531317.699,190,3,"(-2.03, 2.0)"
1769531317.710,190,3,"(-1.37, 2.0)"
1769531317.721,190,3,"(2.94, 2.0)"
1769531317.731,190,3,"(1.55, 2.0)"
1769531317.742,190,3,"(-4.2, 2.0)"
1769531317.752,190,3,"(-1.86, 2.0)"
1769531317.763,190,3,"(1.43, 2.0)"
1769531317.773,190,3,"(1.58, 2.0)"
1769531317.783,190,3,"(0.84, 2.0)"
1769531317.794,190,3,"(-1.3, 2.0)"
1769531317.805,190,3,"(-1.44, 2.0)"
1769531317.815,190,3,"(1.87, 2.0)"
1769531317.826,190,3,"(-0.36, 2.0)"
1769531317.835,190,3,"(0.08, 2.0)"
1769531317.846,190,3,"(-2.14, 2.0)"
1769531317.856,190,3,"(-0.4, 2.0)"
1769531317.866,190,3,"(0.24, 2.0)"
1769531317.877,190,3,"(-2.18, 2.0)"
1769531317.887,190,3,"(-4.01, 2.0)"
1769531317.898,190,3,"(-3.27, 2.0)"
1769531317.908,190,3,"(-2.42, 2.0)"
1769531317.918,190,3,"(-1.78, 2.0)"
1769531317.929,190,3,"(0.13, 2.0)"
1769531317.939,190,3,"(0.51, 2.0)"
1769531317.950,190,3,"(1.47, 2.0)"
1769531317.961,190,3,"(-1.94, 2.0)"
1769531317.972,190,3,"(-3.11, 2.0)"
1769531317.982,190,3,"(1.12, 2.0)"
1769531317.993,190,3,"(2.01, 2.0)"
1769531318.003,190,3,"(-1.52, 2.0)"
1769531318.014,190,3,"(1.19, 2.0)"
1769531318.025,190,3,"(1.17, 2.0)"
1769531318.035,190,3,"(1.91, 2.0)"
1769531318.046,190,3,"(1.95, 2.0)"
1769531318.056,190,3,"(-0.53, 2.0)"
1769531318.066,190,3,"(0.94, 2.0)"
1769531318.077,190,3,"(0.6, 2.0)"
1769531318.089,190,3,"(-2.37, 2.0)"
1769531318.099,190,3,"(-4.29, 2.0)"
1769531318.110,190,3,"(0.43, 2.0)"
1769531318.121,190,3,"(-1.92, 2.0)"
1769531318.132,190,3,"(2.61, 2.0)"
1769531318.142,190,3,"(-0.62, 2.0)"
1769531318.153,190,3,"(3.71, 2.0)"
1769531318.164,190,3,"(4.24, 2.0)"
1769531318.175,190,3,"(-0.57, 2.0)"
1769531318.185,190,3,"(-0.7, 2.0)"
1769531318.195,190,3,"(-0.33, 2.0)"
1769531318.206,190,3,"(1.3, 2.0)"
1769531318.216,190,3,"(-0.64, 2.0)"
1769531318.228,190,3,"(1.82, 2.0)"
1769531318.238,190,3,"(-0.24, 2.0)"
1769531318.248,190,3,"(-0.67, 2.0)"
1769531318.259,190,3,"(-1.07, 2.0)"
1769531318.269,190,3,"(-0.27, 2.0)"
1769531318.280,190,3,"(-2.75, 2.0)"
1769531318.291,190,3,"(-1.34, 2.0)"
1769531318.301,190,3,"(0.84, 2.0)"
1769531318.311,190,3,"(2.12, 2.0)"
1769531318.322,190,3,"(2.11, 2.0)"
1769531318.333,190,3,"(2.17, 2.0)"
1769531318.343,190,3,"(0.37, 2.0)"
1769531318.355,190,3,"(0.58, 2.0)"
1769531318.365,190,3,"(-0.85, 0.0)"
1769531318.375,190,3,"(-1.23, 0.0)"
1769531318.387,190,3,"(1.76, 0.0)"
1769531318.398,190,3,"(1.0, 0.0)"
1769531318.408,190,3,"(-2.07, 0.0)"
1769531318.419,190,3,"(-2.91, 0.0)"
1769531318.429,190,3,"(0.99, 0.0)"
1769531318.439,190,3,"(0.88, 0.0)"
1769531318.450,190,3,"(1.62, 0.0)"
1769531318.460,190,3,"(3.55, 0.0)"
1769531318.471,190,3,"(1.55, 0.0)"
1769531318.482,190,3,"(-1.65, 0.0)"
1769531318.493,190,3,"(-0.06, 0.0)"
1769531318.503,190,3,"(3.01, 0.0)"
1769531318.514,190,3,"(1.98, 0.0)"
1769531318.525,190,3,"(1.65, 0.0)"
1769531318.535,190,3,"(-0.23, 2.0)"
1769531318.546,190,3,"(-3.66, 2.0)"
1769531318.556,190,3,"(3.73, 2.0)"
1769531318.567,190,3,"(2.36, 2.0)"
1769531318.578,190,3,"(0.15, 2.0)"
1769531318.589,190,3,"(4.62, 2.0)"
1769531318.600,190,3,"(4.81, 2.0)"
1769531318.610,190,3,"(3.2, 2.0)"
1769531318.621,190,3,"(-2.35, 2.0)"
1769531318.631,190,3,"(-0.35, 2.0)"
1769531318.642,190,3,"(0.51, 2.0)"
1769531318.652,190,3,"(1.79, 2.0)"
1769531318.663,190,3,"(1.63, 2.0)"
1769531318.673,190,3,"(0.59, 2.0)"
1769531318.683,190,3,"(0.62, 2.0)"
1769531318.694,190,3,"(0.67, 2.0)"
1769531318.705,190,3,"(-0.94, 2.0)"
1769531318.716,190,3,"(-1.13, 2.0)"
1769531318.726,190,3,"(-0.59, 2.0)"
1769531318.737,190,3,"(0.16, 2.0)"
1769531318.748,190,3,"(-0.23, 2.0)"
1769531318.758,190,3,"(-0.02, 2.0)"
1769531318.768,190,3,"(1.29, 2.0)"
1769531318.778,190,3,"(0.21, 2.0)"
1769531318.789,190,3,"(0.49, 0.0)"
1769531318.799,190,3,"(1.51, 0.0)"
1769531318.810,190,3,"(-0.48, 0.0)"
1769531318.821,190,3,"(-2.0, 0.0)"
1769531318.832,190,3,"(-1.89, 0.0)"
1769531318.842,190,3,"(-1.56, 0.0)"
1769531318.853,190,3,"(-0.72, 0.0)"
1769531318.863,190,3,"(1.51, 0.0)"
1769531318.873,190,3,"(3.85, 0.0)"
1769531318.884,190,3,"(0.95, 0.0)"
1769531318.895,190,3,"(-1.38, 0.0)"
1769531318.905,190,3,"(0.92, 0.0)"
1769531318.915,190,3,"(1.27, 0.0)"
1769531318.925,190,3,"(-2.31, 0.0)"
1769531318.935,190,3,"(-2.05, 0.0)"
1769531318.945,190,3,"(0.76, 0.0)"
1769531318.955,190,3,"(0.98, 0.0)"
1769531318.966,190,3,"(-1.73, 0.0)"
1769531318.976,190,3,"(-3.4, 0.0)"
1769531318.987,190,3,"(-1.79, 0.0)"
1769531318.998,190,3,"(1.36, 0.0)"
1769531319.008,190,3,"(0.6, 0.0)"
1769531319.018,190,3,"(-0.35, 0.0)"
1769531319.029,190,3,"(-0.96, 0.0)"
1769531319.039,190,3,"(1.89, 0.0)"
1769531319.050,190,3,"(-1.95, 0.0)"
1769531319.060,190,3,"(1.68, 0.0)"
1769531319.070,190,3,"(0.53, 0.0)"
1769531319.080,190,3,"(-0.52, 0.0)"
1769531319.091,190,3,"(4.18, 0.0)"
1769531319.102,190,3,"(3.36, 0.0)"
1769531319.112,190,3,"(2.08, 2.0)"
1769531319.123,190,3,"(2.88, 2.0)"
1769531319.133,190,3,"(4.49, 2.0)"
1769531319.144,190,3,"(0.49, 2.0)"
1769531319.154,190,3,"(-1.59, 2.0)"
1769531319.165,190,3,"(0.58, 2.0)"
1769531319.175,190,3,"(-2.55, 2.0)"
1769531319.185,190,3,"(-3.87, 2.0)"
1769531319.195,190,3,"(-0.49, 2.0)"
1769531319.205,190,3,"(-2.29, 2.0)"
1769531319.216,190,3,"(-2.33, 2.0)"
1769531319.227,190,3,"(0.05, 2.0)"
1769531319.238,190,3,"(-1.39, 2.0)"
1769531319.249,190,3,"(-2.12, 2.0)"
1769531319.259,190,3,"(2.67, 2.0)"
1769531319.270,190,3,"(0.82, 2.0)"
1769531319.280,190,3,"(0.33, 2.0)"
1769531319.290,190,3,"(0.18, 2.0)"
1769531319.301,190,3,"(1.53, 2.0)"
1769531319.311,190,3,"(2.82, 2.0)"
1769531319.322,190,3,"(-1.97, 2.0)"
1769531319.332,190,3,"(-1.09, 2.0)"
1769531319.344,190,3,"(-0.7, 2.0)"
1769531319.355,190,3,"(0.92, 0.0)"
1769531319.365,190,3,"(0.21, 0.0)"
1769531319.376,190,3,"(1.09, 0.0)"
1769531319.387,190,3,"(-4.98, 0.0)"
1769531319.397,190,3,"(-5.58, 0.0)"
1769531319.408,190,3,"(1.37, 2.0)"
1769531319.418,190,3,"(2.11, 2.0)"
1769531319.429,190,3,"(0.73, 2.0)"
1769531319.439,190,3,"(2.07, 2.0)"
1769531319.449,190,3,"(1.27, 2.0)"
1769531319.460,190,3,"(0.14, 0.0)"
1769531319.472,190,3,"(0.25, 0.0)"
1769531319.483,190,3,"(2.88, 0.0)"
1769531319.493,190,3,"(2.97, 2.0)"
1769531319.503,190,3,"(0.02, 0.0)"
1769531319.514,190,3,"(-2.45, 0.0)"
1769531319.524,190,3,"(-0.22, 0.0)"
1769531319.535,190,3,"(-0.71, 2.0)"
1769531322.611,190,4,"(0.7, 4.0)"
1769531322.620,190,4,"(-2.52, 4.0)"
1769531322.631,190,4,"(-2.65, 4.0)"
1769531322.642,190,4,"(-0.83, 4.0)"
1769531322.652,190,4,"(5.24, 4.0)"
1769531322.663,190,4,"(0.41, 4.0)"
1769531322.673,190,4,"(-0.87, 4.0)"
1769531322.684,190,4,"(1.1, 4.0)"
1769531322.694,190,4,"(1.43, 4.0)"
1769531322.705,190,4,"(-6.42, 4.0)"
1769531322.715,190,4,"(-3.96, 4.0)"
1769531322.725,190,4,"(-0.2, 4.0)"
1769531322.736,190,4,"(0.79, 4.0)"
1769531322.746,190,4,"(-2.19, 4.0)"
1769531322.756,190,4,"(-4.18, 4.0)"
1769531322.767,190,4,"(0.87, 4.0)"
1769531322.777,190,4,"(11.34, 4.0)"
1769531322.789,190,4,"(-1.57, 4.0)"
1769531322.799,190,4,"(10.7, 6.0)"
1769531322.809,190,4,"(1.29, 6.0)"
1769531322.820,190,4,"(-3.28, 6.0)"
1769531322.830,190,4,"(3.07, 4.0)"
1769531322.841,190,4,"(7.6, 4.0)"
1769531322.852,190,4,"(4.97, 4.0)"
1769531322.862,190,4,"(2.52, 4.0)"
1769531322.873,190,4,"(-0.02, 6.0)"
1769531322.883,190,4,"(3.79, 6.0)"
1769531322.893,190,4,"(-3.34, 6.0)"
1769531322.903,190,4,"(1.64, 6.0)"
1769531322.915,190,4,"(-2.36, 6.0)"
1769531322.925,190,4,"(-2.81, 6.0)"
1769531322.935,190,4,"(13.44, 6.0)"
1769531322.946,190,4,"(9.54, 6.0)"
1769531322.957,190,4,"(5.1, 6.0)"
1769531322.967,190,4,"(-4.71, 6.0)"
1769531322.977,190,4,"(-3.34, 6.0)"
1769531322.988,190,4,"(-2.91, 6.0)"
1769531322.998,190,4,"(-9.22, 8.0)"
1769531323.008,190,4,"(2.32, 8.0)"
1769531323.019,190,4,"(1.38, 8.0)"
1769531323.030,190,4,"(1.89, 8.0)"
1769531323.040,190,4,"(-0.25, 8.0)"
1769531323.050,190,4,"(8.73, 8.0)"
1769531323.061,190,4,"(10.58, 8.0)"
1769531323.071,190,4,"(-7.07, 8.0)"
1769531323.082,190,4,"(27.34, 10.0)"
1769531323.092,190,4,"(1.1, 10.0)"
1769531323.102,190,4,"(7.99, 10.0)"
1769531323.113,190,4,"(-5.79, 10.0)"
1769531323.124,190,4,"(-3.66, 10.0)"
1769531323.133,190,4,"(1.35, 10.0)"
1769531323.143,190,4,"(-4.77, 10.0)"
1769531323.154,190,4,"(-5.04, 10.0)"
1769531323.164,190,4,"(4.19, 12.0)"
1769531323.175,190,4,"(2.3, 12.0)"
1769531323.186,190,4,"(-10.03, 12.0)"
1769531323.196,190,4,"(-9.96, 12.0)"
1769531323.206,190,4,"(24.23, 12.0)"
1769531323.216,190,4,"(3.27, 12.0)"
1769531323.227,190,4,"(3.84, 12.0)"
1769531323.239,190,4,"(5.75, 12.0)"
1769531323.249,190,4,"(-2.81, 12.0)"
1769531323.260,190,4,"(-5.25, 12.0)"
1769531323.270,190,4,"(-3.85, 12.0)"
1769531323.281,190,4,"(-14.81, 12.0)"
1769531323.291,190,4,"(-6.72, 12.0)"
1769531323.302,190,4,"(2.41, 12.0)"
1769531323.312,190,4,"(4.9, 12.0)"
1769531323.324,190,4,"(5.49, 12.0)"
1769531323.334,190,4,"(1.07, 10.0)"
1769531323.345,190,4,"(-3.13, 8.0)"
1769531323.355,190,4,"(-12.8, 8.0)"
1769531323.366,190,4,"(-12.19, 10.0)"
1769531323.376,190,4,"(-10.47, 10.0)"
1769531323.386,190,4,"(-9.11, 10.0)"
1769531323.396,190,4,"(-7.4, 10.0)"
1769531323.406,190,4,"(0.72, 10.0)"
1769531323.417,190,4,"(1.53, 10.0)"
1769531323.428,190,4,"(-1.52, 10.0)"
1769531323.439,190,4,"(0.17, 10.0)"
1769531323.449,190,4,"(6.73, 10.0)"
1769531323.460,190,4,"(-2.82, 8.0)"
1769531323.471,190,4,"(-3.74, 8.0)"
1769531323.481,190,4,"(-3.28, 8.0)"
1769531323.491,190,4,"(5.73, 8.0)"
1769531323.502,190,4,"(1.14, 8.0)"
1769531323.512,190,4,"(-1.7, 8.0)"
1769531323.523,190,4,"(-8.79, 8.0)"
1769531323.533,190,4,"(2.05, 6.0)"
1769531323.543,190,4,"(2.93, 6.0)"
1769531323.554,190,4,"(6.28, 6.0)"
1769531323.564,190,4,"(4.18, 6.0)"
1769531323.574,190,4,"(3.08, 6.0)"
1769531323.585,190,4,"(2.58, 6.0)"
1769531323.596,190,4,"(7.88, 6.0)"
1769531323.606,190,4,"(2.53, 6.0)"
1769531323.617,190,4,"(0.24, 6.0)"
1769531323.627,190,4,"(3.39, 6.0)"
1769531323.640,190,4,"(-5.34, 6.0)"
1769531323.650,190,4,"(2.62, 6.0)"
1769531323.660,190,4,"(7.4, 6.0)"
1769531323.672,190,4,"(-8.04, 6.0)"
1769531323.682,190,4,"(0.22, 6.0)"
1769531323.692,190,4,"(12.9, 6.0)"
1769531323.703,190,4,"(11.52, 6.0)"
1769531323.713,190,4,"(4.69, 6.0)"
1769531323.724,190,4,"(-8.42, 8.0)"
1769531323.734,190,4,"(-9.93, 8.0)"
1769531323.744,190,4,"(-8.22, 8.0)"
1769531323.755,190,4,"(10.02, 8.0)"
1769531323.765,190,4,"(4.92, 8.0)"
1769531323.776,190,4,"(-5.24, 8.0)"
1769531323.787,190,4,"(-16.87, 8.0)"
1769531323.797,190,4,"(-9.93, 10.0)"
1769531323.807,190,4,"(-9.34, 10.0)"
1769531323.818,190,4,"(6.01, 10.0)"
1769531323.829,190,4,"(8.19, 12.0)"
1769531323.839,190,4,"(8.17, 12.0)"
1769531323.850,190,4,"(3.96, 14.0)"
1769531323.860,190,4,"(-21.8, 14.0)"
1769531323.871,190,4,"(-3.89, 14.0)"
1769531323.882,190,4,"(2.22, 14.0)"
1769531323.893,190,4,"(-17.61, 14.0)"
1769531323.904,190,4,"(-38.81, 16.0)"
1769531323.914,190,4,"(-29.79, 18.0)"
1769531323.925,190,4,"(-4.91, 18.0)"
1769531323.936,190,4,"(2.93, 18.0)"
1769531323.947,190,4,"(9.15, 18.0)"
1769531323.957,190,4,"(-0.69, 18.0)"
1769531323.969,190,4,"(-5.05, 18.0)"
1769531323.978,190,4,"(-14.52, 18.0)"
1769531323.988,190,4,"(-17.84, 18.0)"
1769531324.000,190,4,"(-5.11, 18.0)"
1769531324.010,190,4,"(2.38, 18.0)"
1769531324.021,190,4,"(1.66, 18.0)"
1769531324.032,190,4,"(5.39, 18.0)"
1769531324.042,190,4,"(2.05, 16.0)"
1769531324.052,190,4,"(5.28, 16.0)"
1769531324.062,190,4,"(3.42, 16.0)"
1769531324.073,190,4,"(7.4, 16.0)"
1769531324.085,190,4,"(8.41, 14.0)"
1769531324.095,190,4,"(9.38, 14.0)"
1769531324.105,190,4,"(-4.44, 14.0)"
1769531324.116,190,4,"(-2.71, 12.0)"
1769531324.126,190,4,"(6.82, 12.0)"
1769531324.137,190,4,"(8.53, 12.0)"
1769531324.147,190,4,"(3.88, 12.0)"
1769531324.157,190,4,"(4.46, 12.0)"
1769531324.168,190,4,"(5.73, 10.0)"
1769531324.179,190,4,"(-6.04, 10.0)"
1769531324.189,190,4,"(-2.5, 10.0)"
1769531324.199,190,4,"(5.37, 10.0)"
1769531324.210,190,4,"(-11.41, 10.0)"
1769531324.221,190,4,"(-9.74, 10.0)"
1769531324.231,190,4,"(-18.08, 10.0)"
1769531324.241,190,4,"(-4.8, 10.0)"
1769531324.252,190,4,"(-8.15, 10.0)"
1769531324.264,190,4,"(-5.35, 10.0)"
1769531324.275,190,4,"(-0.09, 10.0)"
1769531324.285,190,4,"(0.62, 10.0)"
1769531324.295,190,4,"(0.86, 10.0)"
1769531324.306,190,4,"(-1.65, 10.0)"
1769531324.317,190,4,"(-4.6, 10.0)"
1769531324.328,190,4,"(-0.7, 10.0)"
1769531324.339,190,4,"(-8.28, 10.0)"
1769531324.349,190,4,"(-8.04, 10.0)"
1769531324.360,190,4,"(-2.45, 10.0)"
1769531324.370,190,4,"(0.85, 10.0)"
1769531324.380,190,4,"(9.91, 10.0)"
1769531324.391,190,4,"(-11.12, 10.0)"
1769531324.401,190,4,"(-5.82, 10.0)"
1769531324.412,190,4,"(2.62, 10.0)"
1769531324.423,190,4,"(6.56, 10.0)"
1769531324.433,190,4,"(0.27, 8.0)"
1769531324.443,190,4,"(-0.98, 8.0)"
1769531324.454,190,4,"(2.39, 8.0)"
1769531324.464,190,4,"(-3.27, 8.0)"
1769531324.475,190,4,"(6.89, 8.0)"
1769531324.486,190,4,"(2.21, 8.0)"
1769531324.496,190,4,"(-3.14, 8.0)"
1769531324.506,190,4,"(-1.89, 6.0)"
1769531324.517,190,4,"(-4.61, 6.0)"
1769531324.527,190,4,"(6.0, 6.0)"
1769531324.540,190,4,"(-1.01, 8.0)"
1769531324.550,190,4,"(7.31, 8.0)"
1769531324.561,190,4,"(-1.2, 8.0)"
1769531324.571,190,4,"(-6.17, 8.0)"
1769531324.581,190,4,"(-3.65, 8.0)"
1769531324.591,190,4,"(-7.59, 8.0)"
1769531324.602,190,4,"(5.83, 8.0)"
1769531324.613,190,4,"(3.12, 8.0)"
1769531324.623,190,4,"(-6.65, 8.0)"
1769531324.633,190,4,"(-20.8, 8.0)"
1769531324.644,190,4,"(-21.38, 10.0)"
1769531324.654,190,4,"(5.34, 10.0)"
1769531324.664,190,4,"(1.24, 10.0)"
1769531324.674,190,4,"(1.05, 10.0)"
1769531324.685,190,4,"(8.74, 10.0)"
1769531324.695,190,4,"(-2.73, 10.0)"
1769531324.705,190,4,"(-4.72, 10.0)"
1769531324.716,190,4,"(-3.84, 10.0)"
1769531324.727,190,4,"(-5.65, 10.0)"
1769531324.738,190,4,"(3.47, 10.0)"
1769531324.750,190,4,"(3.17, 10.0)"
1769531324.760,190,4,"(2.66, 10.0)"
1769531324.770,190,4,"(2.08, 10.0)"
1769531324.780,190,4,"(5.31, 10.0)"
1769531324.791,190,4,"(8.9, 10.0)"
1769531324.802,190,4,"(5.22, 10.0)"
1769531324.812,190,4,"(-0.43, 10.0)"
1769531324.823,190,4,"(-1.46, 10.0)"
1769531324.834,190,4,"(-3.67, 10.0)"
1769531324.845,190,4,"(-4.08, 8.0)"
1769531324.856,190,4,"(4.9, 8.0)"
1769531324.865,190,4,"(9.33, 8.0)"
1769531324.876,190,4,"(10.07, 8.0)"
1769531324.887,190,4,"(2.29, 8.0)"
1769531324.898,190,4,"(-0.63, 8.0)"
1769531324.908,190,4,"(5.7, 6.0)"
1769531324.919,190,4,"(2.21, 6.0)"
1769531324.929,190,4,"(2.77, 6.0)"
1769531324.940,190,4,"(-5.94, 6.0)"
1769531324.951,190,4,"(0.33, 6.0)"
1769531324.963,190,4,"(0.86, 6.0)"
1769531324.973,190,4,"(-0.89, 6.0)"
1769531324.983,190,4,"(0.19, 6.0)"
1769531324.993,190,4,"(0.39, 6.0)"
1769531325.004,190,4,"(-0.59, 6.0)"
1769531325.014,190,4,"(-2.83, 6.0)"
1769531325.025,190,4,"(0.03, 6.0)"
1769531325.035,190,4,"(3.91, 6.0)"
1769531325.046,190,4,"(12.8, 6.0)"
1769531325.058,190,4,"(-4.81, 6.0)"
1769531325.068,190,4,"(-2.84, 6.0)"
1769531325.078,190,4,"(-5.55, 6.0)"
1769531325.089,190,4,"(-3.63, 6.0)"
1769531325.100,190,4,"(3.9, 6.0)"
1769531325.110,190,4,"(3.74, 6.0)"
1769531325.123,190,4,"(10.43, 6.0)"
1769531325.133,190,4,"(2.32, 6.0)"
1769531325.143,190,4,"(-10.41, 6.0)"
1769531325.153,190,4,"(11.36, 8.0)"
1769531325.164,190,4,"(0.54, 8.0)"
1769531325.174,190,4,"(0.11, 8.0)"
1769531325.185,190,4,"(-10.43, 8.0)"
1769531325.195,190,4,"(-11.82, 10.0)"
1769531325.205,190,4,"(8.98, 10.0)"
1769531325.216,190,4,"(-4.42, 10.0)"
1769531325.226,190,4,"(-17.66, 10.0)"
1769531325.237,190,4,"(-19.67, 12.0)"
1769531325.247,190,4,"(-5.13, 12.0)"
1769531325.257,190,4,"(-16.14, 12.0)"
1769531325.267,190,4,"(-0.55, 14.0)"
1769531325.279,190,4,"(9.86, 14.0)"
1769531325.289,190,4,"(13.89, 16.0)"
1769531325.299,190,4,"(-10.31, 16.0)"
1769531325.310,190,4,"(-14.71, 16.0)"
1769531325.321,190,4,"(-9.43, 16.0)"
1769531325.331,190,4,"(5.74, 16.0)"
1769531325.342,190,4,"(-7.06, 16.0)"
1769531325.352,190,4,"(-32.58, 16.0)"
1769531325.362,190,4,"(18.59, 18.0)"
1769531325.372,190,4,"(-4.17, 18.0)"
1769531325.383,190,4,"(6.95, 18.0)"
1769531325.393,190,4,"(4.79, 18.0)"
1769531325.403,190,4,"(0.84, 18.0)"
1769531325.414,190,4,"(-1.2, 16.0)"
1769531325.424,190,4,"(5.77, 16.0)"
1769531325.435,190,4,"(4.1, 16.0)"
1769531325.445,190,4,"(5.79, 16.0)"
1769531325.455,190,4,"(4.59, 16.0)"
1769531325.465,190,4,"(15.87, 16.0)"
1769531325.476,190,4,"(4.59, 16.0)"
1769531325.487,190,4,"(-0.62, 16.0)"
1769531325.498,190,4,"(-0.24, 14.0)"
1769531325.508,190,4,"(-0.64, 14.0)"
1769531325.518,190,4,"(-5.03, 14.0)"
1769531325.528,190,4,"(-12.27, 14.0)"
1769531325.540,190,4,"(0.26, 14.0)"
1769531325.551,190,4,"(-8.78, 14.0)"
1769531325.562,190,4,"(2.73, 14.0)"
1769531325.572,190,4,"(6.81, 14.0)"
1769531325.583,190,4,"(15.54, 14.0)"
1769531325.593,190,4,"(9.08, 16.0)"
1769531325.603,190,4,"(-2.76, 14.0)"
1769531325.614,190,4,"(-5.09, 12.0)"
1769531325.624,190,4,"(0.83, 12.0)"
1769531340.907,190,1,"(1.42, 2.0)"
1769531340.918,190,1,"(-3.14, 2.0)"
1769531340.929,190,1,"(-0.09, 2.0)"
1769531340.939,190,1,"(-2.92, 2.0)"
1769531340.949,190,1,"(-2.86, 2.0)"
1769531340.960,190,1,"(-0.11, 2.0)"
1769531340.971,190,1,"(-0.17, 2.0)"
1769531340.982,190,1,"(-0.11, 2.0)"
1769531340.992,190,1,"(0.67, 2.0)"
1769531341.002,190,1,"(-0.77, 2.0)"
1769531341.013,190,1,"(0.23, 2.0)"
1769531341.023,190,1,"(-0.43, 2.0)"
1769531341.034,190,1,"(-0.53, 2.0)"
1769531341.044,190,1,"(1.01, 2.0)"
1769531341.055,190,1,"(2.09, 2.0)"
1769531341.066,190,1,"(-0.32, 2.0)"
1769531341.076,190,1,"(0.24, 2.0)"
1769531341.087,190,1,"(-4.27, 2.0)"
1769531341.098,190,1,"(-0.75, 2.0)"
1769531341.108,190,1,"(-0.56, 2.0)"
1769531341.119,190,1,"(-3.07, 2.0)"
1769531341.130,190,1,"(-3.17, 2.0)"
1769531341.141,190,1,"(-1.68, 2.0)"
1769531341.152,190,1,"(3.06, 2.0)"
1769531341.163,190,1,"(0.34, 2.0)"
1769531341.173,190,1,"(-0.64, 2.0)"
1769531341.183,190,1,"(-1.84, 2.0)"
1769531341.194,190,1,"(-0.62, 2.0)"
1769531341.204,190,1,"(0.18, 0.0)"
1769531341.215,190,1,"(-1.53, 0.0)"
1769531341.225,190,1,"(0.97, 0.0)"
1769531341.235,190,1,"(1.27, 0.0)"
1769531341.245,190,1,"(1.29, 0.0)"
1769531341.257,190,1,"(2.34, 0.0)"
1769531341.266,190,1,"(4.13, 2.0)"
1769531341.276,190,1,"(2.64, 2.0)"
1769531341.287,190,1,"(-2.23, 2.0)"
1769531341.297,190,1,"(-1.35, 2.0)"
1769531341.308,190,1,"(0.27, 2.0)"
1769531341.319,190,1,"(-2.05, 2.0)"
1769531341.329,190,1,"(0.68, 2.0)"
1769531341.340,190,1,"(0.1, 0.0)"
1769531341.350,190,1,"(-0.13, 0.0)"
1769531341.360,190,1,"(0.36, 0.0)"
1769531341.372,190,1,"(0.67, 0.0)"
1769531341.382,190,1,"(0.57, 0.0)"
1769531341.392,190,1,"(0.93, 0.0)"
1769531341.402,190,1,"(1.46, 0.0)"
1769531341.412,190,1,"(1.48, 0.0)"
1769531341.422,190,1,"(0.66, 0.0)"
1769531341.433,190,1,"(4.05, 0.0)"
1769531341.443,190,1,"(-1.65, 0.0)"
1769531341.455,190,1,"(0.36, 0.0)"
1769531341.464,190,1,"(0.82, 0.0)"
1769531341.475,190,1,"(0.93, 0.0)"
1769531341.485,190,1,"(0.23, 0.0)"
1769531341.495,190,1,"(0.42, 0.0)"
1769531341.507,190,1,"(-0.13, 0.0)"
1769531341.518,190,1,"(-1.38, 0.0)"
1769531341.528,190,1,"(-1.31, 0.0)"
1769531341.539,190,1,"(-1.56, 0.0)"
1769531341.550,190,1,"(-0.5, 0.0)"
1769531341.560,190,1,"(-0.38, 0.0)"
1769531341.572,190,1,"(-1.61, 0.0)"
1769531341.582,190,1,"(-4.01, 0.0)"
1769531341.592,190,1,"(-1.19, 0.0)"
1769531341.603,190,1,"(-0.39, 0.0)"
1769531341.614,190,1,"(0.47, 0.0)"
1769531341.624,190,1,"(-1.37, 0.0)"
1769531341.635,190,1,"(0.45, 0.0)"
1769531341.645,190,1,"(0.95, 0.0)"
1769531341.656,190,1,"(-1.46, 0.0)"
1769531341.667,190,1,"(-1.86, 0.0)"
1769531341.678,190,1,"(-1.17, 0.0)"
1769531341.688,190,1,"(1.68, 0.0)"
1769531341.698,190,1,"(0.08, 0.0)"
1769531341.709,190,1,"(-0.56, 0.0)"
1769531341.719,190,1,"(1.12, 0.0)"
1769531341.730,190,1,"(-0.25, 0.0)"
1769531341.740,190,1,"(0.48, 0.0)"
1769531341.752,190,1,"(-1.36, 0.0)"
1769531341.762,190,1,"(-0.05, 0.0)"
1769531341.773,190,1,"(-1.23, 0.0)"
1769531341.785,190,1,"(-0.89, 0.0)"
1769531341.795,190,1,"(-0.85, 0.0)"
1769531341.805,190,1,"(-2.34, 0.0)"
1769531341.815,190,1,"(0.5, 0.0)"
1769531341.825,190,1,"(-0.21, 0.0)"
1769531341.835,190,1,"(-1.47, 0.0)"
1769531341.845,190,1,"(0.3, 0.0)"
1769531341.856,190,1,"(1.59, 0.0)"
1769531341.866,190,1,"(1.01, 0.0)"
1769531341.877,190,1,"(0.46, 0.0)"
1769531341.887,190,1,"(-0.49, 0.0)"
1769531341.897,190,1,"(0.86, 0.0)"
1769531341.907,190,1,"(-0.47, 0.0)"
1769531341.919,190,1,"(-1.03, 0.0)"
1769531341.929,190,1,"(0.53, 0.0)"
1769531341.940,190,1,"(-0.24, 0.0)"
1769531341.950,190,1,"(-1.37, 0.0)"
1769531341.961,190,1,"(-0.84, 0.0)"
1769531341.972,190,1,"(1.69, 0.0)"
1769531341.983,190,1,"(0.59, 0.0)"
1769531341.993,190,1,"(-0.49, 0.0)"
1769531342.004,190,1,"(0.27, 0.0)"
1769531342.014,190,1,"(0.06, 0.0)"
1769531342.025,190,1,"(-0.65, 0.0)"
1769531342.036,190,1,"(1.18, 0.0)"
1769531342.046,190,1,"(-0.08, 0.0)"
1769531342.056,190,1,"(-1.09, 0.0)"
1769531342.067,190,1,"(-2.02, 0.0)"
1769531342.077,190,1,"(2.28, 0.0)"
1769531342.087,190,1,"(2.96, 0.0)"
1769531342.098,190,1,"(1.12, 0.0)"
1769531342.108,190,1,"(-0.18, 0.0)"
1769531342.118,190,1,"(-0.18, 0.0)"
1769531342.129,190,1,"(0.75, 0.0)"
1769531342.139,190,1,"(-0.74, 0.0)"
1769531342.150,190,1,"(1.15, 0.0)"
1769531342.160,190,1,"(-0.79, 0.0)"
1769531342.171,190,1,"(1.28, 0.0)"
1769531342.181,190,1,"(2.59, 0.0)"
1769531342.191,190,1,"(0.94, 0.0)"
1769531342.201,190,1,"(-1.16, 0.0)"
1769531342.212,190,1,"(0.15, 0.0)"
1769531342.222,190,1,"(-2.04, 0.0)"
1769531342.233,190,1,"(-0.63, 0.0)"
1769531342.243,190,1,"(1.63, 0.0)"
1769531342.253,190,1,"(-1.33, 0.0)"
1769531342.266,190,1,"(1.23, 0.0)"
1769531342.277,190,1,"(0.19, 0.0)"
1769531342.287,190,1,"(-1.07, 0.0)"
1769531342.298,190,1,"(0.4, 0.0)"
1769531342.309,190,1,"(1.61, 0.0)"
1769531342.319,190,1,"(-1.7, 0.0)"
1769531342.330,190,1,"(-0.93, 0.0)"
1769531342.341,190,1,"(0.45, 0.0)"
1769531342.351,190,1,"(1.39, 0.0)"
1769531342.362,190,1,"(1.4, 0.0)"
1769531342.372,190,1,"(-0.22, 0.0)"
1769531342.383,190,1,"(0.21, 0.0)"
1769531342.393,190,1,"(2.18, 0.0)"
1769531342.404,190,1,"(1.15, 0.0)"
1769531342.414,190,1,"(-1.74, 0.0)"
1769531342.425,190,1,"(-0.44, 0.0)"
1769531342.436,190,1,"(-0.36, 0.0)"
1769531342.446,190,1,"(-0.92, 0.0)"
1769531342.456,190,1,"(1.3, 0.0)"
1769531342.467,190,1,"(-1.53, 0.0)"
1769531342.477,190,1,"(-0.04, 0.0)"
1769531342.487,190,1,"(-2.88, 0.0)"
1769531342.498,190,1,"(-1.28, 0.0)"
1769531342.509,190,1,"(1.32, 0.0)"
1769531342.519,190,1,"(1.87, 0.0)"
1769531342.530,190,1,"(1.4, 0.0)"
1769531342.541,190,1,"(-0.66, 0.0)"
1769531342.552,190,1,"(-0.17, 0.0)"
1769531342.562,190,1,"(-1.8, 0.0)"
1769531342.574,190,1,"(-0.21, 0.0)"
1769531342.584,190,1,"(-0.01, 0.0)"
1769531342.594,190,1,"(-0.67, 0.0)"
1769531342.605,190,1,"(-0.2, 0.0)"
1769531342.616,190,1,"(-0.93, 0.0)"
1769531342.626,190,1,"(-0.46, 0.0)"
1769531342.636,190,1,"(-1.96, 0.0)"
1769531342.646,190,1,"(-0.65, 0.0)"
1769531342.658,190,1,"(1.21, 0.0)"
1769531342.668,190,1,"(-0.28, 0.0)"
1769531342.679,190,1,"(-0.08, 0.0)"
1769531342.689,190,1,"(0.34, 0.0)"
1769531342.699,190,1,"(1.6, 0.0)"
1769531342.710,190,1,"(2.36, 0.0)"
1769531342.721,190,1,"(0.08, 0.0)"
1769531342.732,190,1,"(0.46, 0.0)"
1769531342.741,190,1,"(3.22, 0.0)"
1769531342.752,190,1,"(5.94, 0.0)"
1769531342.762,190,1,"(2.68, 0.0)"
1769531342.773,190,1,"(-1.05, 0.0)"
1769531342.784,190,1,"(3.52, 0.0)"
1769531342.793,190,1,"(1.88, 0.0)"
1769531342.804,190,1,"(0.82, 0.0)"
1769531342.814,190,1,"(-0.52, 0.0)"
1769531342.825,190,1,"(-0.25, 0.0)"
1769531342.835,190,1,"(-0.12, 0.0)"
1769531342.846,190,1,"(-1.4, 0.0)"
1769531342.856,190,1,"(-1.44, 0.0)"
1769531342.866,190,1,"(-1.68, 2.0)"
1769531342.877,190,1,"(-2.11, 2.0)"
1769531342.887,190,1,"(-0.53, 2.0)"
1769531342.897,190,1,"(0.77, 2.0)"
1769531342.907,190,1,"(0.64, 2.0)"
1769531342.918,190,1,"(-0.78, 2.0)"
1769531342.928,190,1,"(-0.28, 2.0)"
1769531342.939,190,1,"(0.49, 2.0)"
1769531342.950,190,1,"(1.42, 2.0)"
1769531342.960,190,1,"(2.12, 2.0)"
1769531342.970,190,1,"(-0.6, 2.0)"
1769531342.982,190,1,"(-0.4, 2.0)"
1769531342.993,190,1,"(-1.45, 2.0)"
1769531343.003,190,1,"(2.52, 2.0)"
1769531343.013,190,1,"(-0.2, 0.0)"
1769531343.024,190,1,"(0.65, 0.0)"
1769531343.035,190,1,"(-0.16, 0.0)"
1769531343.045,190,1,"(-0.53, 0.0)"
1769531343.055,190,1,"(-2.24, 0.0)"
1769531343.065,190,1,"(-0.12, 0.0)"
1769531343.075,190,1,"(0.29, 0.0)"
1769531343.088,190,1,"(0.36, 0.0)"
1769531343.100,190,1,"(2.63, 0.0)"
1769531343.110,190,1,"(2.96, 0.0)"
1769531343.121,190,1,"(2.3, 0.0)"
1769531343.132,190,1,"(-2.23, 0.0)"
1769531343.143,190,1,"(-1.27, 0.0)"
1769531343.153,190,1,"(-0.01, 0.0)"
1769531343.166,190,1,"(1.06, 0.0)"
1769531343.176,190,1,"(3.41, 0.0)"
1769531343.186,190,1,"(4.01, 0.0)"
1769531343.197,190,1,"(0.87, 0.0)"
1769531343.208,190,1,"(-3.11, 0.0)"
1769531343.219,190,1,"(-3.26, 2.0)"
1769531343.229,190,1,"(3.55, 2.0)"
1769531343.239,190,1,"(2.45, 2.0)"
1769531343.250,190,1,"(-1.34, 2.0)"
1769531343.261,190,1,"(0.25, 2.0)"
1769531343.271,190,1,"(0.21, 2.0)"
1769531343.281,190,1,"(1.38, 2.0)"
1769531343.292,190,1,"(0.69, 2.0)"
1769531343.302,190,1,"(1.81, 2.0)"
1769531343.312,190,1,"(0.42, 2.0)"
1769531343.322,190,1,"(1.71, 2.0)"
1769531343.333,190,1,"(1.13, 2.0)"
1769531343.344,190,1,"(1.27, 2.0)"
1769531343.355,190,1,"(-1.25, 2.0)"
1769531343.365,190,1,"(1.56, 2.0)"
1769531343.376,190,1,"(0.7, 2.0)"
1769531343.387,190,1,"(1.58, 0.0)"
1769531343.399,190,1,"(-1.53, 0.0)"
1769531343.409,190,1,"(-1.86, 0.0)"
1769531343.419,190,1,"(-1.14, 0.0)"
1769531343.430,190,1,"(2.58, 0.0)"
1769531343.441,190,1,"(1.79, 0.0)"
1769531343.452,190,1,"(-0.46, 0.0)"
1769531343.462,190,1,"(-0.39, 0.0)"
1769531343.473,190,1,"(-0.71, 0.0)"
1769531343.483,190,1,"(0.84, 0.0)"
1769531343.494,190,1,"(-0.06, 0.0)"
1769531343.505,190,1,"(-3.07, 0.0)"
1769531343.517,190,1,"(-0.78, 0.0)"
1769531343.527,190,1,"(0.34, 0.0)"
1769531343.538,190,1,"(-0.18, 0.0)"
1769531343.548,190,1,"(-1.14, 0.0)"
1769531343.559,190,1,"(-1.35, 0.0)"
1769531343.569,190,1,"(0.3, 0.0)"
1769531343.580,190,1,"(-0.81, 0.0)"
1769531343.591,190,1,"(1.29, 0.0)"
1769531343.601,190,1,"(-0.18, 0.0)"
1769531343.611,190,1,"(0.79, 0.0)"
1769531343.621,190,1,"(1.78, 0.0)"
1769531343.632,190,1,"(0.19, 0.0)"
1769531343.642,190,1,"(-1.49, 0.0)"
1769531343.654,190,1,"(-2.02, 0.0)"
1769531343.664,190,1,"(0.67, 0.0)"
1769531343.674,190,1,"(-0.86, 0.0)"
1769531343.685,190,1,"(-0.24, 0.0)"
1769531343.695,190,1,"(1.69, 0.0)"
1769531343.705,190,1,"(3.04, 0.0)"
1769531343.717,190,1,"(-3.32, 0.0)"
1769531343.726,190,1,"(-2.33, 0.0)"
1769531343.737,190,1,"(-0.54, 0.0)"
1769531343.747,190,1,"(1.03, 0.0)"
1769531343.758,190,1,"(-3.01, 0.0)"
1769531343.768,190,1,"(0.86, 0.0)"
1769531343.778,190,1,"(-0.64, 0.0)"
1769531343.789,190,1,"(1.64, 0.0)"
1769531343.799,190,1,"(-0.26, 0.0)"
1769531343.810,190,1,"(1.69, 0.0)"
1769531343.821,190,1,"(0.96, 0.0)"
1769531343.831,190,1,"(-0.9, 0.0)"
1769531343.842,190,1,"(-1.38, 0.0)"
1769531343.853,190,1,"(-2.57, 0.0)"
1769531343.864,190,1,"(0.52, 0.0)"
1769531343.874,190,1,"(2.4, 0.0)"
1769531343.885,190,1,"(-1.69, 0.0)"
1769531343.895,190,1,"(-3.52, 0.0)"
1769531343.905,190,1,"(-0.96, 2.0)"
1769531343.915,190,1,"(-0.89, 2.0)"
1769531346.260,190,2,"(-19.69, 36.0)"
1769531346.270,190,2,"(2.44, 30.0)"
1769531346.280,190,2,"(-14.71, 30.0)"
1769531346.291,190,2,"(-9.05, 30.0)"
1769531346.302,190,2,"(20.18, 30.0)"
1769531346.313,190,2,"(-39.78, 30.0)"
1769531346.323,190,2,"(-50.33, 32.0)"
1769531346.334,190,2,"(-19.07, 32.0)"
1769531346.345,190,2,"(-62.34, 34.0)"
1769531346.356,190,2,"(6.98, 36.0)"
1769531346.367,190,2,"(15.96, 38.0)"
1769531346.377,190,2,"(42.65, 40.0)"
1769531346.387,190,2,"(-17.01, 42.0)"
1769531346.398,190,2,"(10.34, 44.0)"
1769531346.408,190,2,"(34.44, 44.0)"
1769531346.418,190,2,"(5.99, 46.0)"
1769531346.429,190,2,"(1.82, 44.0)"
1769531346.439,190,2,"(15.9, 46.0)"
1769531346.450,190,2,"(-1.43, 42.0)"
1769531346.460,190,2,"(-41.86, 42.0)"
1769531346.471,190,2,"(-28.18, 44.0)"
1769531346.482,190,2,"(-4.89, 44.0)"
1769531346.493,190,2,"(-7.01, 44.0)"
1769531346.503,190,2,"(-18.55, 44.0)"
1769531346.514,190,2,"(12.93, 46.0)"
1769531346.525,190,2,"(12.35, 46.0)"
1769531346.535,190,2,"(13.34, 46.0)"
1769531346.546,190,2,"(11.7, 46.0)"
1769531346.557,190,2,"(6.06, 46.0)"
1769531346.567,190,2,"(8.11, 44.0)"
1769531346.577,190,2,"(-0.59, 42.0)"
1769531346.588,190,2,"(-17.43, 40.0)"
1769531346.600,190,2,"(-28.26, 40.0)"
1769531346.610,190,2,"(-10.0, 38.0)"
1769531346.621,190,2,"(-62.64, 38.0)"
1769531346.631,190,2,"(-42.69, 40.0)"
1769531346.641,190,2,"(-51.18, 40.0)"
1769531346.652,190,2,"(-24.7, 38.0)"
1769531346.662,190,2,"(6.12, 36.0)"
1769531346.673,190,2,"(4.81, 36.0)"
1769531346.684,190,2,"(2.53, 34.0)"
1769531346.694,190,2,"(-17.75, 34.0)"
1769531346.705,190,2,"(-12.69, 34.0)"
1769531346.716,190,2,"(19.31, 34.0)"
1769531346.726,190,2,"(-24.18, 32.0)"
1769531346.737,190,2,"(-24.4, 34.0)"
1769531346.747,190,2,"(-13.49, 34.0)"
1769531346.758,190,2,"(-16.24, 34.0)"
1769531346.768,190,2,"(12.7, 34.0)"
1769531346.779,190,2,"(22.61, 32.0)"
1769531346.789,190,2,"(-39.21, 34.0)"
1769531346.799,190,2,"(20.46, 36.0)"
1769531346.809,190,2,"(-52.61, 38.0)"
1769531346.821,190,2,"(2.81, 42.0)"
1769531346.832,190,2,"(12.41, 44.0)"
1769531346.842,190,2,"(10.19, 44.0)"
1769531346.853,190,2,"(0.45, 44.0)"
1769531346.864,190,2,"(43.15, 46.0)"
1769531346.875,190,2,"(33.05, 44.0)"
1769531346.885,190,2,"(10.73, 42.0)"
1769531346.896,190,2,"(-11.91, 42.0)"
1769531346.907,190,2,"(-0.67, 40.0)"
1769531346.917,190,2,"(22.96, 40.0)"
1769531346.928,190,2,"(-20.47, 42.0)"
1769531346.939,190,2,"(-17.48, 44.0)"
1769531346.950,190,2,"(4.38, 46.0)"
1769531346.960,190,2,"(11.97, 46.0)"
1769531346.971,190,2,"(23.35, 46.0)"
1769531346.981,190,2,"(-17.16, 46.0)"
1769531346.991,190,2,"(12.91, 44.0)"
1769531347.001,190,2,"(5.71, 44.0)"
1769531347.013,190,2,"(13.94, 44.0)"
1769531347.023,190,2,"(-18.96, 42.0)"
1769531347.035,190,2,"(-45.47, 44.0)"
1769531347.046,190,2,"(-33.02, 44.0)"
1769531347.057,190,2,"(4.15, 42.0)"
1769531347.068,190,2,"(16.5, 38.0)"
1769531347.078,190,2,"(20.01, 36.0)"
1769531347.091,190,2,"(-4.44, 36.0)"
1769531347.101,190,2,"(40.59, 38.0)"
1769531347.112,190,2,"(-39.59, 38.0)"
1769531347.123,190,2,"(-4.52, 38.0)"
1769531347.134,190,2,"(6.58, 36.0)"
1769531347.145,190,2,"(-29.7, 36.0)"
1769531347.156,190,2,"(-17.98, 36.0)"
1769531347.166,190,2,"(15.94, 36.0)"
1769531347.177,190,2,"(3.9, 34.0)"
1769531347.187,190,2,"(-5.23, 32.0)"
1769531347.198,190,2,"(-9.6, 30.0)"
1769531347.208,190,2,"(13.14, 30.0)"
1769531347.218,190,2,"(12.18, 30.0)"
1769531347.229,190,2,"(5.04, 30.0)"
1769531347.239,190,2,"(-7.81, 30.0)"
1769531347.250,190,2,"(-3.44, 30.0)"
1769531347.260,190,2,"(20.32, 28.0)"
1769531347.271,190,2,"(-16.95, 28.0)"
1769531347.281,190,2,"(-7.1, 28.0)"
1769531347.292,190,2,"(-3.3, 26.0)"
1769531347.303,190,2,"(3.19, 26.0)"
1769531347.314,190,2,"(18.32, 24.0)"
1769531347.325,190,2,"(-7.39, 26.0)"
1769531347.335,190,2,"(10.06, 26.0)"
1769531347.346,190,2,"(-9.94, 28.0)"
1769531347.356,190,2,"(17.05, 26.0)"
1769531347.367,190,2,"(3.98, 24.0)"
1769531347.378,190,2,"(2.06, 22.0)"
1769531347.389,190,2,"(1.63, 24.0)"
1769531347.399,190,2,"(3.49, 24.0)"
1769531347.410,190,2,"(18.04, 22.0)"
1769531347.421,190,2,"(2.46, 22.0)"
1769531347.431,190,2,"(-10.42, 22.0)"
1769531347.442,190,2,"(-7.04, 22.0)"
1769531347.452,190,2,"(-20.51, 24.0)"
1769531347.463,190,2,"(-15.48, 24.0)"
1769531347.474,190,2,"(7.8, 22.0)"
1769531347.485,190,2,"(1.17, 22.0)"
1769531347.495,190,2,"(10.67, 22.0)"
1769531347.505,190,2,"(-3.52, 22.0)"
1769531347.515,190,2,"(0.08, 22.0)"
1769531347.526,190,2,"(-5.32, 20.0)"
1769531347.537,190,2,"(11.12, 22.0)"
1769531347.547,190,2,"(28.17, 24.0)"
1769531347.560,190,2,"(-45.05, 24.0)"
1769531347.571,190,2,"(-9.16, 28.0)"
1769531347.581,190,2,"(15.27, 30.0)"
1769531347.592,190,2,"(1.77, 28.0)"
1769531347.603,190,2,"(10.49, 26.0)"
1769531347.613,190,2,"(23.69, 26.0)"
1769531347.624,190,2,"(-7.71, 26.0)"
1769531347.635,190,2,"(-1.52, 28.0)"
1769531347.645,190,2,"(-43.16, 30.0)"
1769531347.655,190,2,"(-30.11, 32.0)"
1769531347.665,190,2,"(-3.7, 32.0)"
1769531347.678,190,2,"(0.14, 32.0)"
1769531347.687,190,2,"(24.86, 32.0)"
1769531347.698,190,2,"(7.05, 32.0)"
1769531347.709,190,2,"(21.72, 32.0)"
1769531347.719,190,2,"(17.11, 32.0)"
1769531347.729,190,2,"(28.7, 34.0)"
1769531347.740,190,2,"(1.0, 34.0)"
1769531347.751,190,2,"(-42.28, 34.0)"
1769531347.761,190,2,"(-27.23, 36.0)"
1769531347.772,190,2,"(-6.78, 38.0)"
1769531347.782,190,2,"(19.21, 38.0)"
1769531347.795,190,2,"(-5.34, 38.0)"
1769531347.805,190,2,"(-7.23, 36.0)"
1769531347.816,190,2,"(-25.17, 34.0)"
1769531347.827,190,2,"(15.43, 32.0)"
1769531347.837,190,2,"(1.62, 30.0)"
1769531347.847,190,2,"(-13.76, 30.0)"
1769531347.860,190,2,"(2.13, 30.0)"
1769531347.871,190,2,"(12.66, 30.0)"
1769531347.882,190,2,"(-37.74, 32.0)"
1769531347.893,190,2,"(-5.81, 30.0)"
1769531347.903,190,2,"(30.95, 30.0)"
1769531347.914,190,2,"(17.6, 30.0)"
1769531347.924,190,2,"(32.89, 32.0)"
1769531347.935,190,2,"(13.41, 32.0)"
1769531347.945,190,2,"(14.76, 32.0)"
1769531347.955,190,2,"(-2.57, 32.0)"
1769531347.965,190,2,"(15.46, 30.0)"
1769531347.976,190,2,"(-17.93, 30.0)"
1769531347.987,190,2,"(-12.2, 30.0)"
1769531347.997,190,2,"(1.86, 30.0)"
1769531348.008,190,2,"(1.76, 28.0)"
1769531348.018,190,2,"(6.82, 28.0)"
1769531348.028,190,2,"(7.64, 26.0)"
1769531348.039,190,2,"(16.73, 26.0)"
1769531348.049,190,2,"(8.61, 26.0)"
1769531348.060,190,2,"(0.8, 26.0)"
1769531348.071,190,2,"(23.1, 26.0)"
1769531348.082,190,2,"(3.5, 26.0)"
1769531348.093,190,2,"(-22.03, 26.0)"
1769531348.104,190,2,"(-24.56, 26.0)"
1769531348.114,190,2,"(-13.09, 26.0)"
1769531348.125,190,2,"(6.62, 26.0)"
1769531348.135,190,2,"(18.31, 24.0)"
1769531348.145,190,2,"(0.78, 24.0)"
1769531348.156,190,2,"(36.12, 24.0)"
1769531348.166,190,2,"(41.82, 24.0)"
1769531348.177,190,2,"(35.13, 24.0)"
1769531348.187,190,2,"(17.33, 24.0)"
1769531348.198,190,2,"(-9.01, 22.0)"
1769531348.209,190,2,"(-1.5, 22.0)"
1769531348.219,190,2,"(16.38, 22.0)"
1769531348.230,190,2,"(-34.83, 24.0)"
1769531348.240,190,2,"(-23.98, 24.0)"
1769531348.251,190,2,"(-25.43, 26.0)"
1769531348.261,190,2,"(-16.86, 28.0)"
1769531348.272,190,2,"(-13.58, 28.0)"
1769531348.284,190,2,"(-2.57, 28.0)"
1769531348.293,190,2,"(1.21, 28.0)"
1769531348.304,190,2,"(-25.5, 28.0)"
1769531348.314,190,2,"(-48.79, 30.0)"
1769531348.325,190,2,"(0.61, 30.0)"
1769531348.335,190,2,"(-15.94, 32.0)"
1769531348.346,190,2,"(11.4, 32.0)"
1769531348.357,190,2,"(13.05, 32.0)"
1769531348.368,190,2,"(21.62, 32.0)"
1769531348.378,190,2,"(11.45, 34.0)"
1769531348.389,190,2,"(-38.24, 34.0)"
1769531348.400,190,2,"(-8.93, 34.0)"
1769531348.410,190,2,"(-3.74, 34.0)"
1769531348.420,190,2,"(-0.53, 34.0)"
1769531348.430,190,2,"(-32.7, 34.0)"
1769531348.443,190,2,"(-36.9, 34.0)"
1769531348.453,190,2,"(-1.44, 34.0)"
1769531348.464,190,2,"(-8.8, 34.0)"
1769531348.474,190,2,"(11.61, 34.0)"
1769531348.485,190,2,"(29.58, 34.0)"
1769531348.495,190,2,"(-17.26, 34.0)"
1769531348.506,190,2,"(5.66, 32.0)"
1769531348.516,190,2,"(13.27, 32.0)"
1769531348.527,190,2,"(-18.18, 32.0)"
1769531348.537,190,2,"(-0.93, 34.0)"
1769531348.547,190,2,"(-4.02, 34.0)"
1769531348.560,190,2,"(-9.14, 34.0)"
1769531348.570,190,2,"(3.6, 32.0)"
1769531348.580,190,2,"(-8.74, 32.0)"
1769531348.591,190,2,"(-8.07, 30.0)"
1769531348.601,190,2,"(-26.4, 32.0)"
1769531348.612,190,2,"(10.41, 30.0)"
1769531348.623,190,2,"(5.72, 30.0)"
1769531348.635,190,2,"(6.26, 30.0)"
1769531348.645,190,2,"(-13.24, 28.0)"
1769531348.656,190,2,"(18.89, 28.0)"
1769531348.666,190,2,"(31.32, 28.0)"
1769531348.677,190,2,"(23.2, 28.0)"
1769531348.687,190,2,"(16.29, 28.0)"
1769531348.698,190,2,"(7.91, 26.0)"
1769531348.708,190,2,"(15.44, 26.0)"
1769531348.719,190,2,"(20.86, 26.0)"
1769531348.729,190,2,"(4.9, 26.0)"
1769531348.740,190,2,"(3.58, 26.0)"
1769531348.751,190,2,"(-0.67, 26.0)"
1769531348.761,190,2,"(19.94, 26.0)"
1769531348.771,190,2,"(38.95, 28.0)"
1769531348.781,190,2,"(7.65, 26.0)"
1769531348.791,190,2,"(-6.26, 26.0)"
1769531348.801,190,2,"(16.79, 26.0)"
1769531348.812,190,2,"(-26.27, 26.0)"
1769531348.823,190,2,"(-15.35, 26.0)"
1769531348.833,190,2,"(-14.96, 26.0)"
1769531348.843,190,2,"(3.15, 26.0)"
1769531348.853,190,2,"(33.75, 28.0)"
1769531348.864,190,2,"(23.03, 28.0)"
1769531348.874,190,2,"(-28.79, 30.0)"
1769531348.885,190,2,"(-21.79, 30.0)"
1769531348.895,190,2,"(5.55, 30.0)"
1769531348.907,190,2,"(-26.4, 30.0)"
1769531348.917,190,2,"(-5.88, 30.0)"
1769531348.928,190,2,"(-11.31, 30.0)"
1769531348.939,190,2,"(23.66, 30.0)"
1769531348.949,190,2,"(9.95, 30.0)"
1769531348.960,190,2,"(4.73, 30.0)"
1769531348.971,190,2,"(2.4, 30.0)"
1769531348.981,190,2,"(-19.13, 30.0)"
1769531348.993,190,2,"(41.83, 32.0)"
1769531349.003,190,2,"(-33.75, 34.0)"
1769531349.013,190,2,"(5.47, 34.0)"
1769531349.025,190,2,"(12.01, 34.0)"
1769531349.035,190,2,"(-5.06, 32.0)"
1769531349.045,190,2,"(5.14, 32.0)"
1769531349.055,190,2,"(-2.19, 32.0)"
1769531349.066,190,2,"(-0.61, 30.0)"
1769531349.076,190,2,"(4.26, 30.0)"
1769531349.087,190,2,"(0.29, 30.0)"
1769531349.097,190,2,"(-15.53, 28.0)"
1769531349.108,190,2,"(-4.51, 26.0)"
1769531349.118,190,2,"(11.51, 26.0)"
1769531349.129,190,2,"(27.34, 26.0)"
1769531349.140,190,2,"(-21.25, 26.0)"
1769531349.150,190,2,"(-3.11, 26.0)"
1769531349.160,190,2,"(15.88, 26.0)"
1769531349.171,190,2,"(29.63, 26.0)"
1769531349.181,190,2,"(13.48, 26.0)"
1769531349.192,190,2,"(2.45, 26.0)"
1769531349.202,190,2,"(12.22, 24.0)"
1769531349.213,190,2,"(16.46, 24.0)"
1769531349.224,190,2,"(26.17, 24.0)"
1769531349.234,190,2,"(3.85, 24.0)"
1769531349.245,190,2,"(15.87, 24.0)"
1769531349.255,190,2,"(14.62, 22.0)"
1769531349.266,190,2,"(19.15, 20.0)"
1769531352.448,190,3,"(0.34, 0.0)"
1769531352.459,190,3,"(-0.23, 0.0)"
1769531352.469,190,3,"(-0.03, 0.0)"
1769531352.480,190,3,"(-0.66, 0.0)"
1769531352.491,190,3,"(-1.02, 0.0)"
1769531352.502,190,3,"(-0.78, 0.0)"
1769531352.513,190,3,"(-1.04, 0.0)"
1769531352.523,190,3,"(0.77, 0.0)"
1769531352.533,190,3,"(4.4, 0.0)"
1769531352.544,190,3,"(4.44, 0.0)"
1769531352.555,190,3,"(-0.25, 0.0)"
1769531352.565,190,3,"(0.49, 0.0)"
1769531352.576,190,3,"(0.84, 0.0)"
1769531352.587,190,3,"(-0.56, 0.0)"
1769531352.598,190,3,"(0.27, 0.0)"
1769531352.608,190,3,"(-2.72, 0.0)"
1769531352.618,190,3,"(-1.93, 0.0)"
1769531352.629,190,3,"(0.82, 0.0)"
1769531352.640,190,3,"(1.11, 0.0)"
1769531352.650,190,3,"(0.7, 0.0)"
1769531352.661,190,3,"(0.06, 0.0)"
1769531352.672,190,3,"(0.33, 0.0)"
1769531352.683,190,3,"(-0.57, 0.0)"
1769531352.693,190,3,"(2.45, 0.0)"
1769531352.703,190,3,"(-1.26, 0.0)"
1769531352.714,190,3,"(2.54, 0.0)"
1769531352.725,190,3,"(2.78, 0.0)"
1769531352.736,190,3,"(-0.81, 0.0)"
1769531352.746,190,3,"(-2.29, 0.0)"
1769531352.756,190,3,"(3.56, 0.0)"
1769531352.768,190,3,"(2.33, 0.0)"
1769531352.778,190,3,"(0.4, 0.0)"
1769531352.791,190,3,"(-0.8, 0.0)"
1769531352.801,190,3,"(-0.25, 0.0)"
1769531352.812,190,3,"(-0.48, 0.0)"
1769531352.822,190,3,"(-0.21, 0.0)"
1769531352.832,190,3,"(0.34, 0.0)"
1769531352.843,190,3,"(0.99, 0.0)"
1769531352.853,190,3,"(2.24, 0.0)"
1769531352.864,190,3,"(0.8, 0.0)"
1769531352.874,190,3,"(0.78, 0.0)"
1769531352.885,190,3,"(1.42, 0.0)"
1769531352.895,190,3,"(-0.93, 0.0)"
1769531352.907,190,3,"(0.45, 0.0)"
1769531352.916,190,3,"(-1.25, 0.0)"
1769531352.926,190,3,"(-1.23, 0.0)"
1769531352.937,190,3,"(-0.2, 0.0)"
1769531352.947,190,3,"(1.03, 0.0)"
1769531352.958,190,3,"(1.22, 0.0)"
1769531352.969,190,3,"(-0.14, 0.0)"
1769531352.979,190,3,"(-0.45, 0.0)"
1769531352.990,190,3,"(-0.67, 0.0)"
1769531353.000,190,3,"(0.02, 0.0)"
1769531353.010,190,3,"(-5.17, 0.0)"
1769531353.022,190,3,"(-5.08, 0.0)"
1769531353.033,190,3,"(-2.75, 0.0)"
1769531353.043,190,3,"(-0.65, 0.0)"
1769531353.055,190,3,"(3.5, 0.0)"
1769531353.065,190,3,"(2.77, 0.0)"
1769531353.075,190,3,"(-1.21, 0.0)"
1769531353.086,190,3,"(1.67, 0.0)"
1769531353.096,190,3,"(0.65, 0.0)"
1769531353.106,190,3,"(2.49, 0.0)"
1769531353.117,190,3,"(-1.69, 0.0)"
1769531353.127,190,3,"(-0.68, 2.0)"
1769531353.140,190,3,"(-0.64, 0.0)"
1769531353.150,190,3,"(1.92, 2.0)"
1769531353.160,190,3,"(-3.17, 2.0)"
1769531353.171,190,3,"(-4.86, 2.0)"
1769531353.182,190,3,"(3.83, 2.0)"
1769531353.192,190,3,"(2.69, 2.0)"
1769531353.203,190,3,"(-1.66, 2.0)"
1769531353.214,190,3,"(-1.23, 2.0)"
1769531353.224,190,3,"(1.16, 2.0)"
1769531353.235,190,3,"(-1.44, 2.0)"
1769531353.245,190,3,"(-0.45, 2.0)"
1769531353.255,190,3,"(-0.57, 2.0)"
1769531353.266,190,3,"(0.82, 2.0)"
1769531353.276,190,3,"(4.36, 2.0)"
1769531353.287,190,3,"(2.1, 2.0)"
1769531353.298,190,3,"(-1.19, 2.0)"
1769531353.308,190,3,"(-1.03, 2.0)"
1769531353.318,190,3,"(0.1, 2.0)"
1769531353.328,190,3,"(-0.17, 2.0)"
1769531353.339,190,3,"(-0.27, 2.0)"
1769531353.350,190,3,"(-1.39, 2.0)"
1769531353.360,190,3,"(0.69, 2.0)"
1769531353.372,190,3,"(0.39, 2.0)"
1769531353.383,190,3,"(-3.22, 2.0)"
1769531353.394,190,3,"(-1.67, 2.0)"
1769531353.406,190,3,"(0.54, 2.0)"
1769531353.416,190,3,"(0.42, 2.0)"
1769531353.426,190,3,"(-1.0, 2.0)"
1769531353.439,190,3,"(-2.22, 2.0)"
1769531353.450,190,3,"(-0.34, 2.0)"
1769531353.460,190,3,"(-1.93, 0.0)"
1769531353.471,190,3,"(-1.64, 0.0)"
1769531353.481,190,3,"(-0.71, 0.0)"
1769531353.491,190,3,"(1.68, 0.0)"
1769531353.502,190,3,"(3.95, 0.0)"
1769531353.512,190,3,"(4.45, 2.0)"
1769531353.522,190,3,"(-1.43, 2.0)"
1769531353.533,190,3,"(-0.25, 0.0)"
1769531353.543,190,3,"(3.19, 0.0)"
1769531353.554,190,3,"(-0.71, 0.0)"
1769531353.564,190,3,"(-0.98, 0.0)"
1769531353.575,190,3,"(1.94, 0.0)"
1769531353.585,190,3,"(1.33, 0.0)"
1769531353.595,190,3,"(-0.76, 0.0)"
1769531353.606,190,3,"(-0.49, 0.0)"
1769531353.616,190,3,"(-2.27, 0.0)"
1769531353.626,190,3,"(-1.31, 0.0)"
1769531353.637,190,3,"(1.85, 0.0)"
1769531353.648,190,3,"(2.1, 0.0)"
1769531353.659,190,3,"(-2.24, 2.0)"
1769531353.669,190,3,"(-1.82, 2.0)"
1769531353.680,190,3,"(0.91, 2.0)"
1769531353.690,190,3,"(1.44, 2.0)"
1769531353.700,190,3,"(1.92, 2.0)"
1769531353.711,190,3,"(-0.67, 2.0)"
1769531353.721,190,3,"(0.85, 2.0)"
1769531353.731,190,3,"(0.43, 2.0)"
1769531353.743,190,3,"(2.61, 2.0)"
1769531353.753,190,3,"(1.37, 2.0)"
1769531353.764,190,3,"(1.37, 0.0)"
1769531353.776,190,3,"(0.1, 0.0)"
1769531353.786,190,3,"(-0.37, 0.0)"
1769531353.797,190,3,"(-2.27, 0.0)"
1769531353.808,190,3,"(-6.47, 0.0)"
1769531353.818,190,3,"(-6.74, 2.0)"
1769531353.828,190,3,"(-1.21, 2.0)"
1769531353.838,190,3,"(3.08, 2.0)"
1769531353.849,190,3,"(-0.9, 2.0)"
1769531353.860,190,3,"(-1.16, 2.0)"
1769531353.871,190,3,"(1.12, 2.0)"
1769531353.882,190,3,"(-0.99, 2.0)"
1769531353.892,190,3,"(-2.62, 2.0)"
1769531353.903,190,3,"(-2.56, 2.0)"
1769531353.913,190,3,"(-2.24, 2.0)"
1769531353.925,190,3,"(0.83, 2.0)"
1769531353.935,190,3,"(2.9, 2.0)"
1769531353.946,190,3,"(0.59, 2.0)"
1769531353.956,190,3,"(0.33, 2.0)"
1769531353.967,190,3,"(1.76, 2.0)"
1769531353.978,190,3,"(0.69, 2.0)"
1769531353.988,190,3,"(-0.03, 2.0)"
1769531353.999,190,3,"(1.06, 2.0)"
1769531354.010,190,3,"(1.84, 2.0)"
1769531354.021,190,3,"(0.87, 2.0)"
1769531354.031,190,3,"(1.02, 2.0)"
1769531354.042,190,3,"(-1.29, 2.0)"
1769531354.052,190,3,"(0.88, 2.0)"
1769531354.062,190,3,"(1.0, 2.0)"
1769531354.073,190,3,"(3.04, 2.0)"
1769531354.083,190,3,"(1.47, 2.0)"
1769531354.095,190,3,"(1.07, 2.0)"
1769531354.105,190,3,"(-3.37, 2.0)"
1769531354.116,190,3,"(-1.99, 2.0)"
1769531354.127,190,3,"(-0.95, 2.0)"
1769531354.137,190,3,"(-1.83, 2.0)"
1769531354.148,190,3,"(-1.66, 2.0)"
1769531354.157,190,3,"(-0.06, 2.0)"
1769531354.168,190,3,"(0.36, 2.0)"
1769531354.178,190,3,"(-2.5, 2.0)"
1769531354.189,190,3,"(-2.78, 2.0)"
1769531354.199,190,3,"(-0.83, 2.0)"
1769531354.210,190,3,"(4.24, 2.0)"
1769531354.221,190,3,"(2.37, 2.0)"
1769531354.231,190,3,"(-1.68, 2.0)"
1769531354.242,190,3,"(-0.25, 2.0)"
1769531354.253,190,3,"(0.14, 2.0)"
1769531354.264,190,3,"(0.72, 2.0)"
1769531354.274,190,3,"(1.16, 2.0)"
1769531354.285,190,3,"(3.06, 2.0)"
1769531354.295,190,3,"(-0.65, 2.0)"
1769531354.305,190,3,"(-0.36, 2.0)"
1769531354.315,190,3,"(0.05, 2.0)"
1769531354.325,190,3,"(0.03, 2.0)"
1769531354.336,190,3,"(-3.52, 2.0)"
1769531354.346,190,3,"(3.67, 2.0)"
1769531354.357,190,3,"(2.14, 2.0)"
1769531354.368,190,3,"(2.46, 2.0)"
1769531354.379,190,3,"(-5.73, 2.0)"
1769531354.389,190,3,"(-2.94, 2.0)"
1769531354.400,190,3,"(1.13, 2.0)"
1769531354.410,190,3,"(2.32, 2.0)"
1769531354.421,190,3,"(3.6, 2.0)"
1769531354.432,190,3,"(-4.84, 2.0)"
1769531354.443,190,3,"(-1.08, 2.0)"
1769531354.453,190,3,"(2.13, 2.0)"
1769531354.464,190,3,"(2.34, 2.0)"
1769531354.475,190,3,"(4.81, 2.0)"
1769531354.485,190,3,"(-0.11, 2.0)"
1769531354.495,190,3,"(0.03, 2.0)"
1769531354.506,190,3,"(-1.11, 2.0)"
1769531354.516,190,3,"(-1.91, 2.0)"
1769531354.526,190,3,"(2.13, 2.0)"
1769531354.537,190,3,"(0.74, 2.0)"
1769531354.548,190,3,"(-1.2, 2.0)"
1769531354.558,190,3,"(1.11, 2.0)"
1769531354.568,190,3,"(-0.51, 2.0)"
1769531354.579,190,3,"(-2.39, 2.0)"
1769531354.590,190,3,"(-0.74, 2.0)"
1769531354.600,190,3,"(1.9, 2.0)"
1769531354.611,190,3,"(1.5, 2.0)"
1769531354.621,190,3,"(1.46, 2.0)"
1769531354.631,190,3,"(0.44, 2.0)"
1769531354.641,190,3,"(1.9, 2.0)"
1769531354.652,190,3,"(-1.98, 2.0)"
1769531354.662,190,3,"(0.38, 2.0)"
1769531354.673,190,3,"(-0.96, 2.0)"
1769531354.684,190,3,"(0.51, 2.0)"
1769531354.695,190,3,"(-1.7, 0.0)"
1769531354.704,190,3,"(-2.36, 0.0)"
1769531354.715,190,3,"(-0.6, 0.0)"
1769531354.725,190,3,"(1.26, 0.0)"
1769531354.737,190,3,"(1.25, 0.0)"
1769531354.747,190,3,"(1.12, 0.0)"
1769531354.757,190,3,"(-0.68, 0.0)"
1769531354.768,190,3,"(1.94, 0.0)"
1769531354.778,190,3,"(-0.29, 0.0)"
1769531354.789,190,3,"(-1.16, 0.0)"
1769531354.799,190,3,"(-2.44, 0.0)"
1769531354.810,190,3,"(-2.2, 0.0)"
1769531354.821,190,3,"(-0.47, 0.0)"
1769531354.832,190,3,"(-1.23, 0.0)"
1769531354.842,190,3,"(-0.07, 0.0)"
1769531354.852,190,3,"(-0.3, 0.0)"
1769531354.863,190,3,"(2.48, 0.0)"
1769531354.873,190,3,"(-1.35, 0.0)"
1769531354.884,190,3,"(-0.26, 0.0)"
1769531354.894,190,3,"(1.67, 0.0)"
1769531354.905,190,3,"(2.2, 0.0)"
1769531354.916,190,3,"(-0.8, 0.0)"
1769531354.926,190,3,"(-1.76, 0.0)"
1769531354.936,190,3,"(-2.45, 0.0)"
1769531354.946,190,3,"(-0.26, 0.0)"
1769531354.956,190,3,"(-1.82, 0.0)"
1769531354.967,190,3,"(-0.57, 0.0)"
1769531354.979,190,3,"(-0.19, 0.0)"
1769531354.990,190,3,"(1.78, 0.0)"
1769531355.000,190,3,"(-0.31, 0.0)"
1769531355.010,190,3,"(-0.61, 0.0)"
1769531355.021,190,3,"(3.66, 0.0)"
1769531355.031,190,3,"(4.32, 0.0)"
1769531355.043,190,3,"(1.17, 0.0)"
1769531355.053,190,3,"(0.37, 0.0)"
1769531355.064,190,3,"(1.22, 0.0)"
1769531355.074,190,3,"(2.44, 0.0)"
1769531355.085,190,3,"(0.9, 0.0)"
1769531355.095,190,3,"(-1.43, 0.0)"
1769531355.105,190,3,"(-1.8, 0.0)"
1769531355.116,190,3,"(1.33, 0.0)"
1769531355.127,190,3,"(2.45, 0.0)"
1769531355.137,190,3,"(-2.77, 0.0)"
1769531355.148,190,3,"(0.61, 2.0)"
1769531355.158,190,3,"(2.94, 2.0)"
1769531355.170,190,3,"(-2.37, 2.0)"
1769531355.180,190,3,"(0.31, 2.0)"
1769531355.191,190,3,"(-0.37, 2.0)"
1769531355.202,190,3,"(-0.78, 2.0)"
1769531355.213,190,3,"(1.32, 2.0)"
1769531355.225,190,3,"(2.07, 2.0)"
1769531355.235,190,3,"(-0.85, 2.0)"
1769531355.245,190,3,"(0.81, 2.0)"
1769531355.256,190,3,"(-0.7, 2.0)"
1769531355.266,190,3,"(4.21, 2.0)"
1769531355.276,190,3,"(2.19, 2.0)"
1769531355.287,190,3,"(-0.83, 2.0)"
1769531355.298,190,3,"(-2.65, 2.0)"
1769531355.308,190,3,"(-0.14, 2.0)"
1769531355.318,190,3,"(-2.47, 2.0)"
1769531355.329,190,3,"(-1.02, 2.0)"
1769531355.340,190,3,"(1.01, 2.0)"
1769531355.351,190,3,"(0.21, 2.0)"
1769531355.361,190,3,"(1.12, 2.0)"
1769531355.372,190,3,"(0.51, 2.0)"
1769531355.383,190,3,"(0.07, 2.0)"
1769531355.393,190,3,"(-0.98, 2.0)"
1769531355.405,190,3,"(0.58, 2.0)"
1769531355.415,190,3,"(-3.09, 2.0)"
1769531355.426,190,3,"(0.61, 2.0)"
1769531355.437,190,3,"(-0.42, 2.0)"
1769531355.448,190,3,"(0.29, 2.0)"
1769531357.648,190,4,"(0.58, 0.0)"
1769531357.658,190,4,"(3.9, 0.0)"
1769531357.669,190,4,"(5.12, 2.0)"
1769531357.680,190,4,"(-3.69, 2.0)"
1769531357.691,190,4,"(-7.83, 2.0)"
1769531357.702,190,4,"(-6.24, 2.0)"
1769531357.712,190,4,"(5.46, 2.0)"
1769531357.723,190,4,"(-12.03, 2.0)"
1769531357.733,190,4,"(-31.9, 4.0)"
1769531357.747,190,4,"(-14.1, 8.0)"
1769531357.758,190,4,"(26.81, 10.0)"
1769531357.768,190,4,"(10.63, 10.0)"
1769531357.778,190,4,"(-4.89, 10.0)"
1769531357.788,190,4,"(-3.34, 10.0)"
1769531357.799,190,4,"(10.11, 12.0)"
1769531357.810,190,4,"(-14.08, 12.0)"
1769531357.821,190,4,"(6.68, 12.0)"
1769531357.831,190,4,"(3.57, 12.0)"
1769531357.842,190,4,"(-0.09, 14.0)"
1769531357.852,190,4,"(-13.48, 14.0)"
1769531357.864,190,4,"(-3.0, 14.0)"
1769531357.875,190,4,"(-5.35, 14.0)"
1769531357.885,190,4,"(-3.94, 16.0)"
1769531357.896,190,4,"(-10.39, 16.0)"
1769531357.906,190,4,"(-0.57, 16.0)"
1769531357.916,190,4,"(32.08, 16.0)"
1769531357.927,190,4,"(43.82, 20.0)"
1769531357.939,190,4,"(7.83, 20.0)"
1769531357.949,190,4,"(-11.06, 20.0)"
1769531357.960,190,4,"(-16.45, 20.0)"
1769531357.971,190,4,"(-24.8, 22.0)"
1769531357.981,190,4,"(-27.12, 24.0)"
1769531357.992,190,4,"(12.99, 22.0)"
1769531358.002,190,4,"(0.42, 20.0)"
1769531358.012,190,4,"(0.8, 20.0)"
1769531358.023,190,4,"(-30.67, 20.0)"
1769531358.033,190,4,"(-26.19, 22.0)"
1769531358.045,190,4,"(-17.79, 24.0)"
1769531358.055,190,4,"(-0.22, 24.0)"
1769531358.065,190,4,"(30.29, 24.0)"
1769531358.077,190,4,"(12.87, 26.0)"
1769531358.086,190,4,"(2.06, 26.0)"
1769531358.096,190,4,"(-15.89, 26.0)"
1769531358.106,190,4,"(-24.99, 26.0)"
1769531358.116,190,4,"(-19.73, 28.0)"
1769531358.126,190,4,"(26.68, 28.0)"
1769531358.137,190,4,"(7.25, 30.0)"
1769531358.148,190,4,"(-28.87, 30.0)"
1769531358.160,190,4,"(0.06, 30.0)"
1769531358.171,190,4,"(-20.41, 32.0)"
1769531358.182,190,4,"(15.08, 30.0)"
1769531358.194,190,4,"(20.68, 30.0)"
1769531358.204,190,4,"(27.26, 30.0)"
1769531358.214,190,4,"(14.09, 32.0)"
1769531358.224,190,4,"(15.07, 32.0)"
1769531358.235,190,4,"(-7.87, 30.0)"
1769531358.245,190,4,"(-13.27, 28.0)"
1769531358.255,190,4,"(-6.65, 28.0)"
1769531358.266,190,4,"(-3.68, 28.0)"
1769531358.276,190,4,"(12.05, 28.0)"
1769531358.287,190,4,"(31.79, 28.0)"
1769531358.298,190,4,"(-18.56, 28.0)"
1769531358.308,190,4,"(-9.28, 26.0)"
1769531358.318,190,4,"(7.03, 26.0)"
1769531358.328,190,4,"(-23.49, 26.0)"
1769531358.338,190,4,"(-16.43, 26.0)"
1769531358.349,190,4,"(-6.45, 26.0)"
1769531358.360,190,4,"(-8.78, 26.0)"
1769531358.371,190,4,"(1.34, 24.0)"
1769531358.381,190,4,"(-1.37, 24.0)"
1769531358.392,190,4,"(21.63, 24.0)"
1769531358.402,190,4,"(6.46, 24.0)"
1769531358.413,190,4,"(-12.93, 22.0)"
1769531358.425,190,4,"(-14.03, 22.0)"
1769531358.434,190,4,"(-10.53, 22.0)"
1769531358.445,190,4,"(8.1, 20.0)"
1769531358.457,190,4,"(-3.74, 20.0)"
1769531358.466,190,4,"(-2.65, 20.0)"
1769531358.477,190,4,"(-2.03, 18.0)"
1769531358.487,190,4,"(-15.03, 18.0)"
1769531358.498,190,4,"(-11.41, 18.0)"
1769531358.509,190,4,"(-14.75, 18.0)"
1769531358.519,190,4,"(11.6, 20.0)"
1769531358.530,190,4,"(0.13, 20.0)"
1769531358.541,190,4,"(5.54, 20.0)"
1769531358.551,190,4,"(6.78, 18.0)"
1769531358.561,190,4,"(6.28, 18.0)"
1769531358.574,190,4,"(4.32, 18.0)"
1769531358.584,190,4,"(8.18, 18.0)"
1769531358.594,190,4,"(1.84, 18.0)"
1769531358.607,190,4,"(-21.71, 18.0)"
1769531358.618,190,4,"(-9.37, 18.0)"
1769531358.628,190,4,"(-1.12, 18.0)"
1769531358.641,190,4,"(3.74, 16.0)"
1769531358.651,190,4,"(0.6, 16.0)"
1769531358.662,190,4,"(31.4, 18.0)"
1769531358.674,190,4,"(-5.51, 18.0)"
1769531358.684,190,4,"(12.85, 18.0)"
1769531358.694,190,4,"(2.6, 18.0)"
1769531358.705,190,4,"(6.68, 18.0)"
1769531358.715,190,4,"(-12.95, 18.0)"
1769531358.725,190,4,"(-5.41, 18.0)"
1769531358.740,190,4,"(-6.1, 18.0)"
1769531358.751,190,4,"(-14.32, 20.0)"
1769531358.761,190,4,"(9.26, 18.0)"
1769531358.771,190,4,"(16.6, 18.0)"
1769531358.782,190,4,"(10.77, 18.0)"
1769531358.792,190,4,"(-6.01, 18.0)"
1769531358.803,190,4,"(-4.02, 18.0)"
1769531358.814,190,4,"(38.82, 20.0)"
1769531358.824,190,4,"(15.52, 20.0)"
1769531358.835,190,4,"(-1.36, 20.0)"
1769531358.845,190,4,"(-42.5, 22.0)"
1769531358.857,190,4,"(34.56, 22.0)"
1769531358.867,190,4,"(13.26, 24.0)"
1769531358.878,190,4,"(11.2, 24.0)"
1769531358.889,190,4,"(-12.26, 24.0)"
1769531358.899,190,4,"(-26.73, 24.0)"
1769531358.910,190,4,"(-7.42, 24.0)"
1769531358.920,190,4,"(19.13, 24.0)"
1769531358.930,190,4,"(18.07, 24.0)"
1769531358.941,190,4,"(0.54, 24.0)"
1769531358.951,190,4,"(23.64, 24.0)"
1769531358.962,190,4,"(27.02, 26.0)"
1769531358.972,190,4,"(-0.64, 26.0)"
1769531358.983,190,4,"(-3.08, 24.0)"
1769531358.995,190,4,"(6.21, 24.0)"
1769531359.006,190,4,"(-3.41, 24.0)"
1769531359.016,190,4,"(-3.43, 24.0)"
1769531359.027,190,4,"(-31.61, 26.0)"
1769531359.037,190,4,"(-8.19, 26.0)"
1769531359.048,190,4,"(2.35, 26.0)"
1769531359.058,190,4,"(-0.42, 26.0)"
1769531359.068,190,4,"(-14.62, 24.0)"
1769531359.079,190,4,"(-8.22, 22.0)"
1769531359.090,190,4,"(6.03, 22.0)"
1769531359.100,190,4,"(4.43, 22.0)"
1769531359.110,190,4,"(2.07, 20.0)"
1769531359.121,190,4,"(4.15, 18.0)"
1769531359.131,190,4,"(2.04, 18.0)"
1769531359.141,190,4,"(-1.75, 18.0)"
1769531359.152,190,4,"(-9.01, 16.0)"
1769531359.164,190,4,"(-7.54, 16.0)"
1769531359.175,190,4,"(-3.84, 16.0)"
1769531359.185,190,4,"(0.0, 16.0)"
1769531359.195,190,4,"(5.57, 14.0)"
1769531359.207,190,4,"(-2.43, 14.0)"
1769531359.217,190,4,"(-5.18, 12.0)"
1769531359.228,190,4,"(3.44, 12.0)"
1769531359.241,190,4,"(1.98, 12.0)"
1769531359.251,190,4,"(0.45, 12.0)"
1769531359.261,190,4,"(-4.58, 10.0)"
1769531359.272,190,4,"(8.11, 10.0)"
1769531359.282,190,4,"(4.06, 8.0)"
1769531359.292,190,4,"(-0.71, 8.0)"
1769531359.303,190,4,"(0.33, 8.0)"
1769531359.314,190,4,"(3.69, 6.0)"
1769531359.325,190,4,"(1.86, 6.0)"
1769531359.335,190,4,"(1.91, 6.0)"
1769531359.345,190,4,"(-5.22, 6.0)"
1769531359.357,190,4,"(4.21, 6.0)"
1769531359.366,190,4,"(2.4, 6.0)"
1769531359.377,190,4,"(2.83, 6.0)"
1769531359.387,190,4,"(-4.84, 6.0)"
1769531359.398,190,4,"(2.37, 6.0)"
1769531359.408,190,4,"(4.94, 4.0)"
1769531359.419,190,4,"(8.29, 4.0)"
1769531359.429,190,4,"(-1.91, 4.0)"
1769531359.440,190,4,"(-4.09, 4.0)"
1769531359.450,190,4,"(-9.03, 4.0)"
1769531359.460,190,4,"(-5.42, 4.0)"
1769531359.471,190,4,"(-7.5, 6.0)"
1769531359.481,190,4,"(0.24, 6.0)"
1769531359.491,190,4,"(12.34, 6.0)"
1769531359.502,190,4,"(-10.87, 6.0)"
1769531359.513,190,4,"(-29.77, 8.0)"
1769531359.523,190,4,"(6.29, 8.0)"
