session_id,level_number,filtered_values,envelope_values
196,1,"[511.0, 511.0, 511.0, 511.0, 511.0, 511.0, 511.0, 511.0, 511.0, 511.0, 511.0, 511.0, 511.0, 511.0, 511.0, 511.0, 511.0, 511.0, 511.0, 511.0, 511.0, 511.0, 511.0, 511.0, 511.0, 511.0, 511.0, 511.0, 511.0, 511.0, 511.0, 511.0, 511.0, 511.0, 511.0, 511.0, 511.0, 511.0, 511.0, 511.0, 511.0, 511.0, 511.0, 511.0, 511.0, 511.0, 511.0, 511.0, 511.0, 511.0, 511.0, 511.0, 511.0, 511.0, 511.0, 511.0, 511.0, 511.0, 511.0, 511.0, 511.0, 511.0, 511.0, 511.0, 511.0, 511.0, 511.0, 511.0, 511.0, 511.0, 511.0, 511.0, 511.0, 511.0, 511.0, 511.0, 511.0, 511.0, 511.0, 511.0, 511.0, 511.0, 511.0, 511.0, 511.0, 511.0, 511.0, 511.0, 511.0, 511.0, 511.0, 511.0, 511.0, 511.0, 511.0, 511.0, 511.0, 511.0, 511.0, 511.0, 511.0, 511.0, 511.0, 511.0, 511.0, 511.0, 511.0, 511.0, 511.0, 511.0, 511.0, 511.0, 511.0, 511.0, 511.0, 511.0, 511.0, 511.0, 511.0, 511.0, 511.0, 511.0, 511.0, 511.0, 511.0, 511.0, 511.0, 511.0, 511.0, 511.0, 511.0, 511.0, 511.0, 511.0, 511.0, 511.0, 511.0, 511.0, 511.0, 511.0, 511.0, 511.0, 511.0, 511.0, 511.0, 511.0, 511.0, 511.0, 511.0, 511.0, 511.0, 511.0, 511.0, 511.0, 511.0, 511.0, 511.0, 511.0, 511.0, 511.0, 511.0, 511.0, 511.0, 511.0, 511.0, 511.0, 511.0, 511.0, 511.0, 511.0, 511.0, 511.0, 511.0, 511.0, 511.0, 511.0, 511.0, 511.0, 511.0, 511.0, 511.0, 511.0, 511.0, 511.0, 511.0, 511.0, 511.0, 511.0, 511.0, 511.0, 511.0, 511.0, 511.0, 511.0, 511.0, 511.0, 511.0, 511.0, 511.0, 511.0, 511.0, 511.0, 511.0, 511.0, 511.0, 511.0, 511.0, 511.0, 511.0, 511.0, 511.0, 511.0, 511.0, 511.0, 511.0, 511.0, 511.0, 511.0, 511.0, 511.0, 511.0, 511.0, 511.0, 511.0, 511.0, 511.0, 511.0, 511.0, 511.0, 511.0, 511.0, 511.0, 511.0, 511.0, 511.0, 511.0, 511.0, 511.0, 511.0, 511.0, 511.0, 511.0, 511.0, 511.0, 511.0, 511.0, 511.0, 511.0, 511.0, 511.0, 511.0, 511.0, 511.0, 511.0, 511.0, 511.0, 511.0, 511.0, 511.0, 511.0, 511.0, 511.0, 511.0, 511.0, 511.0, 511.0, 511.0, 511.0, 511.0, 511.0, 511.0, 511.0, 511.0, 511.0, 511.0, 511.0, 511.0, 511.0, 511.0, 511.0, 511.0, 511.0]","[419.0, 278.3333333333333, 278.3333333333333, 278.3333333333333, 278.3333333333333, 278.3333333333333, 278.3333333333333, 278.3333333333333, 278.3333333333333, 278.3333333333333, 274.0, 270.0, 270.0, 266.0, 266.0, 266.0, 266.0, 266.0, 262.0, 262.0, 262.0, 266.0, 266.0, 270.3333333333333, 270.3333333333333, 266.0, 262.0, 262.0, 262.0, 262.0, 262.0, 262.0, 266.0, 266.0, 270.3333333333333, 270.3333333333333, 270.3333333333333, 270.3333333333333, 266.0, 266.0, 266.0, 266.0, 266.0, 262.0, 262.0, 262.0, 243.0, 243.0, 224.0, 224.0, 224.0, 243.0, 247.0, 247.0, 251.0, 251.0, 251.0, 251.0, 251.0, 251.0, 251.0, 251.0, 251.0, 251.0, 251.0, 232.0, 232.0, 232.0, 232.0, 228.0, 228.0, 220.0, 220.0, 216.0, 216.0, 220.0, 224.0, 220.0, 220.0, 224.0, 224.0, 224.0, 224.0, 224.0, 224.0, 224.0, 224.0, 224.0, 228.0, 228.0, 232.0, 232.0, 232.0, 232.0, 232.0, 232.0, 232.0, 228.0, 228.0, 247.0, 247.0, 266.0, 274.0, 274.0, 274.3333333333333, 274.3333333333333, 270.3333333333333, 266.0, 266.0, 262.0, 262.0, 262.0, 262.0, 262.0, 262.0, 262.0, 266.0, 266.0, 270.3333333333333, 270.3333333333333, 266.0, 266.0, 262.0, 262.0, 262.0, 262.0, 262.0, 262.0, 262.0, 262.0, 262.0, 262.0, 243.0, 243.0, 224.0, 228.0, 228.0, 232.0, 232.0, 232.0, 251.0, 251.0, 251.0, 251.0, 251.0, 251.0, 247.0, 247.0, 224.0, 224.0, 224.0, 224.0, 243.0, 243.0, 262.0, 262.0, 266.0, 270.0, 270.0, 270.0, 270.0, 270.0, 270.0, 251.0, 251.0, 232.0, 232.0, 232.0, 232.0, 232.0, 232.0, 232.0, 232.0, 232.0, 232.0, 232.0, 232.0, 232.0, 232.0, 232.0, 232.0, 232.0, 232.0, 232.0, 232.0, 232.0, 232.0, 232.0, 232.0, 228.0, 228.0, 224.0, 224.0, 243.0, 243.0, 243.0, 243.0, 243.0, 224.0, 224.0, 224.0, 224.0, 224.0, 224.0, 224.0, 224.0, 224.0, 224.0, 224.0, 224.0, 224.0, 224.0, 224.0, 224.0, 224.0, 224.0, 224.0, 224.0, 224.0, 224.0, 224.0, 224.0, 224.0, 224.0, 224.0, 220.0, 220.0, 216.0, 216.0, 216.0, 216.0, 216.0, 216.0, 216.0, 216.0, 216.0, 220.0, 224.0, 228.0, 228.0, 224.0, 224.0, 224.0, 224.0, 224.0, 224.0, 228.0, 224.0, 228.0, 224.0, 224.0, 224.0, 247.0, 247.0, 270.0, 270.0, 270.0, 270.0, 270.0, 270.0, 270.0, 270.0, 270.0, 270.0, 270.0, 270.0, 270.0, 270.0, 270.0, 270.0, 270.0, 270.0, 270.0, 270.0, 270.0, 270.0, 270.0, 270.0, 270.0, 270.0, 270.0, 270.0]"
196,2,"[389.3333333333333, 651.0, 483.6666666666667, 422.6666666666667, 349.6666666666667, 419.6666666666667, 447.0, 486.6666666666667, 465.3333333333333, 511.0, 553.6666666666666, 398.3333333333333, 508.0, 535.3333333333334, 532.3333333333334, 514.0, 532.3333333333334, 553.6666666666666, 413.6666666666667, 398.3333333333333, 502.0, 468.3333333333333, 468.3333333333333, 626.6666666666666, 450.0, 462.3333333333333, 349.6666666666667, 441.0, 468.3333333333333, 553.6666666666666, 572.0, 532.3333333333334, 532.3333333333334, 486.6666666666667, 422.6666666666667, 398.3333333333333, 489.6666666666667, 559.6666666666666, 468.3333333333333, 553.6666666666666, 465.3333333333333, 483.6666666666667, 486.6666666666667, 471.3333333333333, 465.3333333333333, 483.6666666666667, 486.6666666666667, 596.3333333333334, 532.3333333333334, 575.0, 462.3333333333333, 483.6666666666667, 483.6666666666667, 508.0, 465.3333333333333, 489.6666666666667, 608.3333333333334, 511.0, 678.3333333333334, 566.3333333333334, 447.0, 532.3333333333334, 532.3333333333334, 340.3333333333333, 532.3333333333334, 489.6666666666667, 553.6666666666666, 447.0, 447.0, 489.6666666666667, 447.0, 489.6666666666667, 575.0, 617.6666666666666, 575.0, 596.3333333333334, 489.6666666666667, 447.0, 532.3333333333334, 489.6666666666667, 425.6666666666667, 575.0, 532.3333333333334, 553.6666666666666, 489.6666666666667, 575.0, 532.3333333333334, 532.3333333333334, 532.3333333333334, 489.6666666666667, 553.6666666666666, 511.0, 404.3333333333333, 511.0, 489.6666666666667, 489.6666666666667, 532.3333333333334, 468.3333333333333, 489.6666666666667, 489.6666666666667, 553.6666666666666, 489.6666666666667, 511.0, 511.0, 489.6666666666667, 511.0, 511.0, 511.0, 489.6666666666667, 425.6666666666667, 511.0, 511.0, 553.6666666666666, 532.3333333333334, 489.6666666666667, 532.3333333333334, 532.3333333333334, 468.3333333333333, 468.3333333333333, 575.0, 511.0, 489.6666666666667, 404.3333333333333, 468.3333333333333, 468.3333333333333, 511.0, 361.6666666666667, 447.0, 489.6666666666667, 511.0, 511.0, 532.3333333333334, 447.0, 575.0, 553.6666666666666, 511.0, 532.3333333333334, 511.0, 553.6666666666666, 575.0, 532.3333333333334, 532.3333333333334, 468.3333333333333, 447.0, 468.3333333333333, 511.0, 489.6666666666667, 553.6666666666666, 511.0, 532.3333333333334, 511.0, 553.6666666666666, 489.6666666666667, 511.0, 468.3333333333333, 575.0, 489.6666666666667, 575.0, 489.6666666666667, 532.3333333333334, 511.0, 468.3333333333333, 489.6666666666667, 468.3333333333333, 468.3333333333333, 511.0, 468.3333333333333, 532.3333333333334, 489.6666666666667, 532.3333333333334, 532.3333333333334, 511.0, 511.0, 532.3333333333334, 532.3333333333334, 511.0, 511.0, 553.6666666666666, 511.0, 532.3333333333334, 575.0, 596.3333333333334, 532.3333333333334, 575.0, 532.3333333333334, 489.6666666666667, 489.6666666666667, 511.0, 511.0, 511.0, 553.6666666666666, 489.6666666666667, 532.3333333333334, 404.3333333333333, 553.6666666666666, 489.6666666666667, 511.0, 468.3333333333333, 511.0, 532.3333333333334, 596.3333333333334, 553.6666666666666, 532.3333333333334, 468.3333333333333, 511.0, 553.6666666666666, 511.0, 511.0, 511.0, 553.6666666666666, 468.3333333333333, 532.3333333333334, 532.3333333333334, 511.0, 553.6666666666666, 553.6666666666666, 511.0, 489.6666666666667, 468.3333333333333, 468.3333333333333, 489.6666666666667, 532.3333333333334, 553.6666666666666, 553.6666666666666, 532.3333333333334, 532.3333333333334, 532.3333333333334, 532.3333333333334, 511.0, 511.0, 575.0, 511.0, 468.3333333333333, 511.0, 447.0, 489.6666666666667, 553.6666666666666, 553.6666666666666, 489.6666666666667, 575.0, 468.3333333333333, 468.3333333333333, 553.6666666666666, 511.0, 489.6666666666667, 468.3333333333333, 511.0, 489.6666666666667, 553.6666666666666, 553.6666666666666, 489.6666666666667, 532.3333333333334, 489.6666666666667, 553.6666666666666, 511.0, 532.3333333333334, 489.6666666666667, 511.0, 511.0, 489.6666666666667, 489.6666666666667, 532.3333333333334, 532.3333333333334, 468.3333333333333, 511.0, 532.3333333333334, 489.6666666666667, 489.6666666666667, 553.6666666666666, 511.0, 489.6666666666667, 468.3333333333333, 511.0, 511.0, 489.6666666666667, 511.0, 532.3333333333334, 468.3333333333333, 532.3333333333334, 511.0, 532.3333333333334, 489.6666666666667]","[606.6666666666666, 713.3333333333334, 710.0, 706.0, 706.0, 706.0, 710.0, 710.0, 710.0, 705.6666666666666, 693.6666666666666, 689.3333333333334, 681.3333333333334, 669.3333333333334, 661.0, 657.0, 645.0, 641.0, 629.0, 629.0, 633.0, 653.0, 665.3333333333334, 677.3333333333334, 669.3333333333334, 661.3333333333334, 653.3333333333334, 653.3333333333334, 657.0, 653.0, 649.0, 645.0, 641.0, 641.0, 641.0, 632.6666666666666, 620.6666666666666, 620.6666666666666, 620.6666666666666, 620.6666666666666, 620.3333333333334, 612.3333333333334, 608.3333333333334, 596.0, 580.0, 568.0, 555.6666666666666, 551.6666666666666, 551.6666666666666, 555.6666666666666, 551.3333333333334, 547.3333333333334, 539.3333333333334, 527.3333333333334, 527.0, 523.0, 519.0, 519.3333333333334, 519.3333333333334, 523.3333333333334, 539.6666666666666, 556.0, 568.0, 576.0, 584.0, 592.3333333333334, 600.3333333333334, 604.3333333333334, 608.6666666666666, 616.6666666666666, 620.6666666666666, 612.6666666666666, 616.3333333333334, 616.6666666666666, 620.6666666666666, 620.6666666666666, 624.6666666666666, 628.6666666666666, 636.6666666666666, 645.3333333333334, 641.0, 641.0, 636.6666666666666, 632.6666666666666, 620.3333333333334, 616.6666666666666, 612.6666666666666, 604.6666666666666, 604.3333333333334, 596.3333333333334, 600.6666666666666, 604.3333333333334, 600.3333333333334, 600.0, 592.0, 588.0, 588.3333333333334, 588.3333333333334, 588.3333333333334, 592.0, 596.3333333333334, 600.3333333333334, 600.3333333333334, 604.3333333333334, 600.0, 608.3333333333334, 620.6666666666666, 628.6666666666666, 636.6666666666666, 645.0, 653.0, 661.3333333333334, 673.3333333333334, 673.3333333333334, 665.3333333333334, 653.0, 645.0, 641.0, 633.0, 628.6666666666666, 628.6666666666666, 624.6666666666666, 620.6666666666666, 608.3333333333334, 600.0, 584.0, 580.0, 580.0, 588.3333333333334, 584.3333333333334, 588.3333333333334, 576.0, 568.0, 568.0, 559.6666666666666, 551.6666666666666, 547.6666666666666, 543.6666666666666, 531.6666666666666, 527.3333333333334, 531.0, 539.3333333333334, 543.3333333333334, 547.6666666666666, 551.6666666666666, 551.6666666666666, 555.3333333333334, 555.3333333333334, 555.3333333333334, 551.3333333333334, 555.3333333333334, 551.6666666666666, 551.6666666666666, 539.3333333333334, 539.3333333333334, 539.3333333333334, 543.6666666666666, 539.3333333333334, 539.3333333333334, 531.0, 531.0, 531.3333333333334, 527.3333333333334, 523.3333333333334, 523.0, 511.0, 511.0, 498.6666666666667, 498.6666666666667, 494.6666666666667, 494.6666666666667, 494.6666666666667, 498.6666666666667, 498.6666666666667, 498.6666666666667, 499.0, 486.3333333333333, 474.3333333333333, 462.3333333333333, 450.0, 446.0, 446.0, 446.0, 450.3333333333333, 450.3333333333333, 454.0, 462.0, 462.0, 462.3333333333333, 454.3333333333333, 450.0, 442.0, 438.0, 450.3333333333333, 462.3333333333333, 478.6666666666667, 482.6666666666667, 490.6666666666667, 486.3333333333333, 490.3333333333333, 507.0, 519.3333333333334, 539.3333333333334, 547.6666666666666, 543.3333333333334, 535.3333333333334, 531.3333333333334, 515.0, 502.6666666666667, 494.6666666666667, 486.6666666666667, 490.6666666666667, 494.6666666666667, 506.6666666666667, 510.6666666666667, 519.0, 519.0, 511.0, 495.0, 478.3333333333333, 470.3333333333333, 470.3333333333333, 474.6666666666667, 470.3333333333333, 466.3333333333333, 466.3333333333333, 458.0, 458.0, 454.0, 466.0, 470.3333333333333, 482.6666666666667, 486.6666666666667, 487.0, 482.6666666666667, 478.6666666666667, 466.0, 462.0, 458.0, 458.0, 462.0, 454.0, 458.0, 466.3333333333333, 470.3333333333333, 478.6666666666667, 482.6666666666667, 482.6666666666667, 482.6666666666667, 482.6666666666667, 486.6666666666667, 486.6666666666667, 498.6666666666667, 498.6666666666667, 507.0, 507.0, 511.0, 519.0, 523.0, 527.3333333333334, 527.3333333333334, 523.3333333333334, 511.3333333333333, 507.3333333333333, 486.6666666666667, 482.6666666666667, 466.3333333333333, 466.6666666666667, 454.3333333333333, 450.0, 442.0, 430.0, 417.6666666666667, 405.6666666666667, 397.0, 393.0, 385.0, 385.0, 377.0, 373.0, 365.0, 361.0]"
196,3,"[511.0, 511.0, 511.0, 511.0, 511.0, 511.0, 511.0, 511.0, 511.0, 511.0, 511.0, 511.0, 511.0, 511.0, 511.0, 511.0, 511.0, 511.0, 511.0, 511.0, 511.0, 511.0, 511.0, 511.0, 511.0, 511.0, 511.0, 511.0, 511.0, 511.0, 511.0, 511.0, 511.0, 511.0, 511.0, 511.0, 511.0, 511.0, 511.0, 511.0, 511.0, 511.0, 511.0, 511.0, 511.0, 511.0, 511.0, 511.0, 511.0, 511.0, 511.0, 511.0, 511.0, 511.0, 511.0, 511.0, 511.0, 511.0, 511.0, 511.0, 511.0, 511.0, 511.0, 511.0, 511.0, 511.0, 511.0, 511.0, 511.0, 511.0, 511.0, 511.0, 511.0, 511.0, 511.0, 511.0, 511.0, 511.0, 511.0, 511.0, 511.0, 511.0, 511.0, 511.0, 511.0, 511.0, 511.0, 511.0, 511.0, 511.0, 511.0, 511.0, 511.0, 511.0, 511.0, 511.0, 511.0, 511.0, 511.0, 511.0, 511.0, 511.0, 511.0, 511.0, 511.0, 511.0, 511.0, 511.0, 511.0, 511.0, 511.0, 511.0, 511.0, 511.0, 511.0, 511.0, 511.0, 511.0, 511.0, 511.0, 511.0, 511.0, 511.0, 511.0, 511.0, 511.0, 511.0, 511.0, 511.0, 511.0, 511.0, 511.0, 511.0, 511.0, 511.0, 511.0, 511.0, 511.0, 511.0, 511.0, 511.0, 511.0, 511.0, 511.0, 511.0, 511.0, 511.0, 511.0, 511.0, 511.0, 511.0, 511.0, 511.0, 511.0, 511.0, 511.0, 511.0, 511.0, 511.0, 511.0, 511.0, 511.0, 511.0, 511.0, 511.0, 511.0, 511.0, 511.0, 511.0, 511.0, 511.0, 511.0, 511.0, 511.0, 511.0, 511.0, 511.0, 511.0, 511.0, 511.0, 511.0, 511.0, 511.0, 511.0, 511.0, 511.0, 511.0, 511.0, 511.0, 511.0, 511.0, 511.0, 511.0, 511.0, 511.0, 511.0, 511.0, 511.0, 511.0, 511.0, 511.0, 511.0, 511.0, 511.0, 511.0, 511.0, 511.0, 511.0, 511.0, 511.0, 511.0, 511.0, 511.0, 511.0, 511.0, 511.0, 511.0, 511.0, 511.0, 511.0, 511.0, 511.0, 511.0, 511.0, 511.0, 511.0, 511.0, 511.0, 511.0, 511.0, 511.0, 511.0, 511.0, 511.0, 511.0, 511.0, 511.0, 511.0, 511.0, 511.0, 511.0, 511.0, 511.0, 511.0, 511.0, 511.0, 511.0, 511.0, 511.0, 511.0, 511.0, 511.0, 511.0, 511.0, 511.0, 511.0, 511.0, 511.0, 511.0, 511.0, 511.0, 511.0, 511.0, 511.0, 511.0, 511.0, 511.0, 511.0, 511.0, 511.0, 511.0, 511.0, 511.0, 511.0, 511.0, 511.0, 511.0, 511.0, 511.0, 511.0, 511.0, 511.0, 511.0, 511.0]","[161.66666666666666, 149.66666666666666, 149.66666666666666, 149.66666666666666, 145.66666666666666, 145.66666666666666, 145.66666666666666, 145.66666666666666, 149.66666666666666, 149.66666666666666, 154.0, 154.0, 154.0, 145.66666666666666, 145.66666666666666, 145.66666666666666, 150.0, 154.0, 154.0, 154.0, 154.0, 150.0, 150.0, 146.0, 146.0, 146.0, 150.0, 150.0, 150.0, 154.0, 158.0, 162.0, 158.0, 158.0, 154.0, 154.0, 154.0, 154.0, 154.0, 154.0, 154.0, 154.0, 154.0, 149.66666666666666, 145.66666666666666, 145.66666666666666, 145.66666666666666, 145.66666666666666, 145.66666666666666, 145.66666666666666, 149.66666666666666, 153.66666666666666, 153.66666666666666, 149.66666666666666, 149.66666666666666, 145.66666666666666, 145.66666666666666, 145.66666666666666, 145.66666666666666, 145.66666666666666, 145.66666666666666, 145.66666666666666, 145.66666666666666, 145.66666666666666, 145.66666666666666, 145.66666666666666, 145.66666666666666, 149.66666666666666, 149.66666666666666, 153.66666666666666, 153.66666666666666, 153.66666666666666, 153.66666666666666, 153.66666666666666, 153.66666666666666, 153.66666666666666, 153.66666666666666, 153.66666666666666, 158.0, 158.0, 162.0, 162.0, 162.0, 162.0, 166.0, 166.0, 170.0, 170.0, 170.0, 170.0, 170.0, 170.0, 170.0, 170.0, 170.0, 170.0, 166.0, 166.0, 162.0, 162.0, 162.0, 158.0, 158.0, 153.66666666666666, 153.66666666666666, 153.66666666666666, 153.66666666666666, 153.66666666666666, 153.66666666666666, 153.66666666666666, 153.66666666666666, 149.66666666666666, 149.66666666666666, 145.66666666666666, 145.66666666666666, 145.66666666666666, 145.66666666666666, 145.66666666666666, 145.66666666666666, 149.66666666666666, 149.66666666666666, 149.66666666666666, 149.66666666666666, 154.0, 154.0, 154.0, 154.0, 154.0, 154.0, 154.0, 154.0, 149.66666666666666, 145.33333333333334, 145.33333333333334, 145.33333333333334, 145.33333333333334, 154.0, 154.0, 154.0, 154.0, 154.0, 149.66666666666666, 149.66666666666666, 145.66666666666666, 145.66666666666666, 145.66666666666666, 145.66666666666666, 145.66666666666666, 149.66666666666666, 149.66666666666666, 153.66666666666666, 153.66666666666666, 153.66666666666666, 153.66666666666666, 153.66666666666666, 153.66666666666666, 153.66666666666666, 153.66666666666666, 157.66666666666666, 157.66666666666666, 157.66666666666666, 157.66666666666666, 157.66666666666666, 149.66666666666666, 149.66666666666666, 145.66666666666666, 145.66666666666666, 145.66666666666666, 145.66666666666666, 149.66666666666666, 149.66666666666666, 149.66666666666666, 145.66666666666666, 150.0, 141.66666666666666, 141.66666666666666, 141.66666666666666, 141.66666666666666, 141.66666666666666, 141.66666666666666, 137.66666666666666, 137.66666666666666, 137.66666666666666, 137.66666666666666, 141.66666666666666, 145.66666666666666, 145.66666666666666, 145.66666666666666, 141.33333333333334, 141.33333333333334, 137.33333333333334, 133.33333333333334, 133.33333333333334, 129.33333333333334, 129.33333333333334, 129.33333333333334, 129.33333333333334, 129.33333333333334, 133.33333333333334, 133.33333333333334, 137.66666666666666, 137.66666666666666, 137.66666666666666, 137.66666666666666, 137.66666666666666, 137.66666666666666, 137.66666666666666, 137.66666666666666, 137.66666666666666, 137.66666666666666, 137.66666666666666, 141.66666666666666, 141.66666666666666, 145.66666666666666, 145.66666666666666, 145.66666666666666, 145.66666666666666, 145.66666666666666, 145.66666666666666, 149.66666666666666, 149.66666666666666, 149.66666666666666, 145.66666666666666, 149.66666666666666, 149.66666666666666, 154.0, 154.0, 154.0, 149.66666666666666, 149.66666666666666, 145.66666666666666, 145.66666666666666, 145.66666666666666, 145.66666666666666, 145.66666666666666, 145.66666666666666, 145.66666666666666, 145.66666666666666, 145.66666666666666, 145.66666666666666, 145.66666666666666, 145.66666666666666, 145.66666666666666, 145.66666666666666, 145.66666666666666, 145.66666666666666, 145.66666666666666, 145.66666666666666, 145.66666666666666, 145.66666666666666, 145.66666666666666, 145.66666666666666, 145.66666666666666, 145.66666666666666, 145.66666666666666, 145.66666666666666, 145.66666666666666, 145.66666666666666, 145.66666666666666, 145.66666666666666, 145.66666666666666, 145.66666666666666, 145.66666666666666, 145.66666666666666, 145.66666666666666, 145.66666666666666, 141.33333333333334, 137.33333333333334, 137.33333333333334, 137.33333333333334, 137.33333333333334, 137.33333333333334, 137.33333333333334, 137.33333333333334, 137.33333333333334, 137.33333333333334, 137.33333333333334, 137.33333333333334, 137.33333333333334, 137.33333333333334, 137.33333333333334, 137.33333333333334, 137.33333333333334, 145.66666666666666]"
196,4,"[511.0, 489.6666666666667, 511.0, 511.0, 511.0, 489.6666666666667, 468.3333333333333, 511.0, 532.3333333333334, 511.0, 511.0, 511.0, 511.0, 489.6666666666667, 489.6666666666667, 489.6666666666667, 511.0, 532.3333333333334, 532.3333333333334, 511.0, 489.6666666666667, 489.6666666666667, 489.6666666666667, 511.0, 511.0, 511.0, 511.0, 532.3333333333334, 511.0, 511.0, 511.0, 511.0, 511.0, 511.0, 511.0, 511.0, 511.0, 511.0, 511.0, 511.0, 511.0, 511.0, 511.0, 511.0, 511.0, 511.0, 511.0, 511.0, 511.0, 511.0, 511.0, 511.0, 511.0, 511.0, 511.0, 511.0, 511.0, 511.0, 511.0, 511.0, 511.0, 511.0, 511.0, 511.0, 511.0, 511.0, 511.0, 511.0, 511.0, 511.0, 511.0, 511.0, 511.0, 511.0, 511.0, 511.0, 511.0, 511.0, 511.0, 511.0, 511.0, 511.0, 511.0, 511.0, 511.0, 511.0, 511.0, 511.0, 511.0, 511.0, 511.0, 511.0, 511.0, 511.0, 511.0, 511.0, 511.0, 489.6666666666667, 511.0, 511.0, 511.0, 511.0, 511.0, 511.0, 511.0, 511.0, 511.0, 511.0, 511.0, 511.0, 511.0, 511.0, 511.0, 511.0, 511.0, 511.0, 511.0, 511.0, 511.0, 511.0, 511.0, 511.0, 511.0, 511.0, 511.0, 511.0, 511.0, 511.0, 511.0, 511.0, 511.0, 511.0, 511.0, 511.0, 511.0, 511.0, 511.0, 511.0, 511.0, 511.0, 511.0, 511.0, 511.0, 511.0, 511.0, 511.0, 511.0, 511.0, 511.0, 511.0, 511.0, 511.0, 511.0, 511.0, 511.0, 511.0, 511.0, 511.0, 511.0, 511.0, 511.0, 511.0, 511.0, 511.0, 511.0, 511.0, 511.0, 511.0, 511.0, 511.0, 511.0, 511.0, 511.0, 511.0, 511.0, 511.0, 511.0, 511.0, 511.0, 511.0, 511.0, 511.0, 511.0, 511.0, 511.0, 511.0, 511.0, 532.3333333333334, 511.0, 511.0, 511.0, 511.0, 511.0, 511.0, 511.0, 511.0, 511.0, 511.0, 511.0, 511.0, 511.0, 511.0, 511.0, 511.0, 511.0, 511.0, 511.0, 511.0, 511.0, 511.0, 511.0, 511.0, 511.0, 511.0, 511.0, 511.0, 511.0, 511.0, 511.0, 511.0, 511.0, 511.0, 511.0, 511.0, 511.0, 511.0, 511.0, 511.0, 511.0, 511.0, 511.0, 511.0, 511.0, 511.0, 511.0, 511.0, 511.0, 511.0, 511.0, 511.0, 511.0, 511.0, 511.0, 511.0, 511.0, 511.0, 511.0, 511.0, 511.0, 511.0, 511.0, 511.0, 511.0, 511.0, 511.0, 511.0, 511.0, 511.0, 511.0, 511.0, 511.0, 511.0, 511.0, 511.0, 511.0, 511.0, 511.0, 511.0, 511.0, 511.0, 511.0, 511.0, 511.0, 511.0, 511.0, 511.0, 511.0, 511.0, 511.0, 511.0, 511.0, 511.0]","[190.33333333333334, 186.0, 186.0, 186.33333333333334, 186.33333333333334, 190.33333333333334, 190.33333333333334, 198.66666666666666, 206.66666666666666, 210.66666666666666, 214.66666666666666, 227.0, 235.0, 243.0, 247.0, 255.33333333333334, 255.33333333333334, 259.3333333333333, 263.6666666666667, 271.6666666666667, 275.6666666666667, 283.6666666666667, 283.6666666666667, 279.6666666666667, 279.6666666666667, 279.6666666666667, 280.0, 280.0, 279.6666666666667, 275.6666666666667, 271.6666666666667, 267.6666666666667, 259.3333333333333, 259.3333333333333, 251.0, 239.0, 227.0, 214.66666666666666, 206.33333333333334, 206.33333333333334, 206.66666666666666, 210.66666666666666, 206.33333333333334, 210.33333333333334, 206.33333333333334, 206.33333333333334, 198.33333333333334, 198.33333333333334, 194.33333333333334, 194.33333333333334, 190.33333333333334, 190.33333333333334, 186.33333333333334, 182.33333333333334, 178.0, 178.0, 174.0, 170.0, 174.0, 174.0, 182.0, 186.33333333333334, 190.33333333333334, 182.33333333333334, 178.0, 174.0, 166.0, 166.0, 161.66666666666666, 157.66666666666666, 161.66666666666666, 153.66666666666666, 158.0, 158.0, 158.0, 162.0, 166.0, 170.33333333333334, 174.33333333333334, 178.33333333333334, 178.33333333333334, 178.33333333333334, 178.33333333333334, 178.33333333333334, 178.0, 178.0, 178.0, 178.0, 178.0, 182.0, 182.0, 186.33333333333334, 186.33333333333334, 186.33333333333334, 186.33333333333334, 190.33333333333334, 194.33333333333334, 194.33333333333334, 194.33333333333334, 190.33333333333334, 186.33333333333334, 186.33333333333334, 186.33333333333334, 186.33333333333334, 182.0, 182.0, 178.0, 178.0, 174.0, 178.33333333333334, 174.33333333333334, 170.0, 170.0, 170.0, 170.0, 170.0, 170.0, 170.0, 170.0, 165.66666666666666, 165.66666666666666, 165.66666666666666, 161.66666666666666, 165.66666666666666, 165.66666666666666, 165.66666666666666, 162.0, 162.0, 166.0, 170.0, 170.0, 170.0, 166.0, 166.0, 162.0, 162.0, 162.0, 162.0, 162.0, 157.66666666666666, 157.66666666666666, 153.66666666666666, 153.66666666666666, 149.66666666666666, 149.66666666666666, 149.66666666666666, 150.0, 145.66666666666666, 145.66666666666666, 141.66666666666666, 145.66666666666666, 145.66666666666666, 149.66666666666666, 153.66666666666666, 153.66666666666666, 157.66666666666666, 161.66666666666666, 161.66666666666666, 161.66666666666666, 161.66666666666666, 161.66666666666666, 161.66666666666666, 161.66666666666666, 161.66666666666666, 161.66666666666666, 165.66666666666666, 165.66666666666666, 170.0, 170.0, 165.66666666666666, 170.0, 170.0, 170.0, 170.0, 174.0, 170.0, 174.33333333333334, 166.0, 162.0, 162.0, 162.0, 158.0, 158.0, 158.0, 154.0, 154.0, 154.0, 154.0, 154.0, 154.0, 154.0, 154.0, 154.0, 154.0, 154.0, 154.0, 154.0, 158.0, 158.0, 162.0, 162.0, 162.0, 162.0, 162.0, 162.0, 162.0, 162.0, 162.0, 162.0, 162.0, 166.0, 166.0, 166.0, 162.0, 162.0, 162.0, 166.0, 166.0, 166.0, 157.66666666666666, 157.66666666666666, 153.66666666666666, 153.66666666666666, 153.66666666666666, 153.66666666666666, 153.66666666666666, 153.66666666666666, 153.66666666666666, 153.66666666666666, 153.66666666666666, 153.66666666666666, 153.66666666666666, 153.66666666666666, 149.33333333333334, 145.33333333333334, 145.33333333333334, 141.33333333333334, 141.33333333333334, 137.33333333333334, 137.33333333333334, 137.33333333333334, 137.33333333333334, 133.33333333333334, 133.33333333333334, 133.33333333333334, 137.33333333333334, 137.33333333333334, 137.33333333333334, 133.33333333333334, 137.66666666666666, 137.66666666666666, 137.66666666666666, 141.66666666666666, 141.66666666666666, 141.66666666666666, 141.66666666666666, 141.66666666666666, 141.66666666666666, 141.66666666666666, 145.66666666666666, 145.66666666666666, 145.66666666666666, 145.66666666666666, 145.66666666666666, 145.66666666666666, 145.66666666666666, 149.66666666666666, 149.66666666666666, 154.0, 154.0, 154.0, 154.0, 154.0, 149.66666666666666, 153.66666666666666, 153.66666666666666, 153.66666666666666, 149.66666666666666, 154.0, 154.0, 154.0, 154.0]"
270,1,"[542.3333333333334, 542.3333333333334, 542.3333333333334, 542.3333333333334, 542.3333333333334, 542.3333333333334, 542.3333333333334, 542.3333333333334, 542.3333333333334, 542.3333333333334, 542.3333333333334, 542.3333333333334, 542.3333333333334, 542.3333333333334, 542.3333333333334, 542.3333333333334, 542.3333333333334, 542.3333333333334, 542.3333333333334, 542.3333333333334, 542.3333333333334, 542.3333333333334, 542.3333333333334, 542.3333333333334, 542.3333333333334, 542.3333333333334, 542.3333333333334, 542.3333333333334, 542.3333333333334, 542.3333333333334, 542.3333333333334, 542.3333333333334, 542.3333333333334, 542.3333333333334, 542.3333333333334, 542.3333333333334, 542.3333333333334, 542.3333333333334, 542.3333333333334, 542.3333333333334, 542.3333333333334, 542.3333333333334, 542.3333333333334, 542.3333333333334, 542.3333333333334, 542.3333333333334, 542.3333333333334, 542.3333333333334, 542.3333333333334, 542.3333333333334, 542.3333333333334, 542.3333333333334, 542.3333333333334, 542.3333333333334, 542.3333333333334, 542.3333333333334, 542.3333333333334, 542.3333333333334, 542.3333333333334, 542.3333333333334, 542.3333333333334, 542.3333333333334, 542.3333333333334, 542.3333333333334, 542.3333333333334, 542.3333333333334, 542.3333333333334, 542.3333333333334, 542.3333333333334, 542.3333333333334, 542.3333333333334, 542.3333333333334, 542.3333333333334, 542.3333333333334, 542.3333333333334, 542.3333333333334, 542.3333333333334, 542.3333333333334, 542.3333333333334, 542.3333333333334, 542.3333333333334, 542.3333333333334, 542.3333333333334, 542.3333333333334, 542.3333333333334, 542.3333333333334, 542.3333333333334, 542.3333333333334, 542.3333333333334, 542.3333333333334, 542.3333333333334, 542.3333333333334, 542.3333333333334, 542.3333333333334, 542.3333333333334, 542.3333333333334, 542.3333333333334, 542.3333333333334, 542.3333333333334, 542.3333333333334, 542.3333333333334, 542.3333333333334, 542.3333333333334, 542.3333333333334, 542.3333333333334, 542.3333333333334, 542.3333333333334, 542.3333333333334, 542.3333333333334, 542.3333333333334, 542.3333333333334, 542.3333333333334, 542.3333333333334, 542.3333333333334, 542.3333333333334, 542.3333333333334, 542.3333333333334, 542.3333333333334, 542.3333333333334, 542.3333333333334, 542.3333333333334, 542.3333333333334, 542.3333333333334, 542.3333333333334, 542.3333333333334, 542.3333333333334, 542.3333333333334, 542.3333333333334, 542.3333333333334, 542.3333333333334, 542.3333333333334, 542.3333333333334, 542.3333333333334, 542.3333333333334, 542.3333333333334, 542.3333333333334, 542.3333333333334, 542.3333333333334, 542.3333333333334, 542.3333333333334, 542.3333333333334, 542.3333333333334, 542.3333333333334, 542.3333333333334, 542.3333333333334, 542.3333333333334, 542.3333333333334, 542.3333333333334, 542.3333333333334, 542.3333333333334, 542.3333333333334, 542.3333333333334, 542.3333333333334, 542.3333333333334, 542.3333333333334, 542.3333333333334, 542.3333333333334, 542.3333333333334, 542.3333333333334, 542.3333333333334, 542.3333333333334, 542.3333333333334, 542.3333333333334, 542.3333333333334, 542.3333333333334, 542.3333333333334, 542.3333333333334, 542.3333333333334, 542.3333333333334, 542.3333333333334, 542.3333333333334, 542.3333333333334, 542.3333333333334, 542.3333333333334, 542.3333333333334, 542.3333333333334, 542.3333333333334, 542.3333333333334, 542.3333333333334, 542.3333333333334, 542.3333333333334, 542.3333333333334, 542.3333333333334, 542.3333333333334, 542.3333333333334, 542.3333333333334, 542.3333333333334, 542.3333333333334, 542.3333333333334, 542.3333333333334, 542.3333333333334, 542.3333333333334, 542.3333333333334, 542.3333333333334, 542.3333333333334, 542.3333333333334, 542.3333333333334, 542.3333333333334, 542.3333333333334, 542.3333333333334, 542.3333333333334, 542.3333333333334, 542.3333333333334, 542.3333333333334, 542.3333333333334, 542.3333333333334, 542.3333333333334, 542.3333333333334, 542.3333333333334, 542.3333333333334, 542.3333333333334, 542.3333333333334, 542.3333333333334, 542.3333333333334, 542.3333333333334, 542.3333333333334, 542.3333333333334, 542.3333333333334, 542.3333333333334, 542.3333333333334, 542.3333333333334, 542.3333333333334, 542.3333333333334, 542.3333333333334, 542.3333333333334, 542.3333333333334, 542.3333333333334, 542.3333333333334, 542.3333333333334, 542.3333333333334, 542.3333333333334, 542.3333333333334, 542.3333333333334, 542.3333333333334, 542.3333333333334, 542.3333333333334, 542.3333333333334, 542.3333333333334, 542.3333333333334, 542.3333333333334, 542.3333333333334, 542.3333333333334, 542.3333333333334, 542.3333333333334, 542.3333333333334, 542.3333333333334, 542.3333333333334, 542.3333333333334, 542.3333333333334, 542.3333333333334, 542.3333333333334, 542.3333333333334, 542.3333333333334, 542.3333333333334, 542.3333333333334, 542.3333333333334, 542.3333333333334, 542.3333333333334, 542.3333333333334, 542.3333333333334, 542.3333333333334, 542.3333333333334, 542.3333333333334, 542.3333333333334, 542.3333333333334, 542.3333333333334, 542.3333333333334, 542.3333333333334, 542.3333333333334, 542.3333333333334, 542.3333333333334, 542.3333333333334, 542.3333333333334, 542.3333333333334, 542.3333333333334, 542.3333333333334, 558.0, 558.0]","[0.0, 0.0, 0.0, 0.0, 0.0, 0.0, 0.0, 0.0, 0.0, 0.0, 0.0, 0.0, 0.0, 0.0, 0.0, 0.0, 0.0, 0.0, 0.0, 0.0, 0.0, 0.0, 0.0, 0.0, 0.0, 0.0, 0.0, 0.0, 0.0, 0.0, 0.0, 0.0, 0.0, 0.0, 0.0, 0.0, 0.0, 0.0, 0.0, 0.0, 0.0, 0.0, 0.0, 0.0, 0.0, 0.0, 0.0, 0.0, 0.0, 0.0, 0.0, 0.0, 0.0, 0.0, 0.0, 0.0, 0.0, 0.0, 0.0, 0.0, 0.0, 0.0, 0.0, 9.0, 9.0, 18.333333333333332, 18.333333333333332, 18.333333333333332, 18.333333333333332, 18.333333333333332, 18.333333333333332, 18.333333333333332, 18.333333333333332, 18.333333333333332, 18.333333333333332, 18.333333333333332, 18.333333333333332, 18.333333333333332, 18.333333333333332, 18.333333333333332, 18.333333333333332, 18.333333333333332, 18.333333333333332, 18.333333333333332, 18.333333333333332, 18.333333333333332, 18.333333333333332, 18.333333333333332, 18.333333333333332, 18.333333333333332, 18.333333333333332, 18.333333333333332, 18.333333333333332, 18.333333333333332, 18.333333333333332, 18.333333333333332, 18.333333333333332, 18.333333333333332, 18.333333333333332, 18.333333333333332, 18.333333333333332, 18.333333333333332, 18.333333333333332, 18.333333333333332, 18.333333333333332, 9.0, 0.0, 0.0, 0.0, 0.0, 0.0, 0.0, 0.0, 0.0, 0.0, 0.0, 0.0, 0.0, 0.0, 9.0, 9.0, 18.333333333333332, 18.333333333333332, 18.333333333333332, 9.0, 9.0, 9.0, 0.0, 0.0, 9.0, 9.0, 9.0, 9.0, 0.0, 0.0, 0.0, 0.0, 0.0, 0.0, 0.0, 0.0, 0.0, 0.0, 0.0, 0.0, 0.0, 0.0, 0.0, 0.0, 0.0, 0.0, 0.0, 0.0, 0.0, 0.0, 0.0, 0.0, 0.0, 0.0, 0.0, 0.0, 0.0, 0.0, 0.0, 0.0, 0.0, 0.0, 0.0, 0.0, 0.0, 0.0, 0.0, 0.0, 0.0, 0.0, 0.0, 0.0, 0.0, 0.0, 0.0, 0.0, 0.0, 0.0, 0.0, 0.0, 0.0, 0.0, 0.0, 0.0, 0.0, 0.0, 0.0, 0.0, 0.0, 0.0, 0.0, 0.0, 0.0, 0.0, 0.0, 0.0, 0.0, 0.0, 0.0, 0.0, 0.0, 0.0, 0.0, 0.0, 0.0, 0.0, 0.0, 0.0, 0.0, 0.0, 0.0, 0.0, 0.0, 0.0, 0.0, 0.0, 0.0, 0.0, 0.0, 0.0, 0.0, 0.0, 0.0, 0.0, 0.0, 0.0, 0.0, 0.0, 0.0, 0.0, 0.0, 0.0, 0.0, 0.0, 0.0, 0.0, 0.0, 0.0, 0.0, 5.0, 5.0, 10.333333333333334, 10.333333333333334, 5.0, 5.0, 0.0, 0.0, 0.0, 0.0, 0.0, 0.0, 0.0, 0.0, 0.0, 0.0, 0.0, 0.0, 0.0, 0.0, 0.0, 0.0, 0.0, 0.0, 9.0, 18.333333333333332, 18.333333333333332, 18.333333333333332, 18.333333333333332, 18.333333333333332, 18.333333333333332, 18.333333333333332, 0.0, 0.0]"
270,2,"[511.3333333333333, 474.0, 452.3333333333333, 573.3333333333334, 672.6666666666666, 576.3333333333334, 610.6666666666666, 579.6666666666666, 573.3333333333334, 576.3333333333334, 607.3333333333334, 573.3333333333334, 604.3333333333334, 607.3333333333334, 610.6666666666666, 542.3333333333334, 545.3333333333334, 542.3333333333334, 542.3333333333334, 511.3333333333333, 477.3333333333333, 412.0, 576.3333333333334, 573.3333333333334, 514.3333333333334, 542.3333333333334, 480.3333333333333, 480.3333333333333, 406.0, 570.3333333333334, 542.3333333333334, 545.3333333333334, 576.3333333333334, 613.6666666666666, 675.6666666666666, 666.3333333333334, 573.3333333333334, 573.3333333333334, 412.0, 511.3333333333333, 542.3333333333334, 548.6666666666666, 545.3333333333334, 604.3333333333334, 536.0, 474.0, 508.3333333333333, 567.0, 480.3333333333333, 539.3333333333334, 474.0, 570.3333333333334, 610.6666666666666, 477.3333333333333, 573.3333333333334, 508.3333333333333, 542.3333333333334, 610.6666666666666, 542.3333333333334, 542.3333333333334, 607.3333333333334, 511.3333333333333, 514.3333333333334, 542.3333333333334, 641.6666666666666, 542.3333333333334, 480.3333333333333, 644.6666666666666, 542.3333333333334, 415.3333333333333, 480.3333333333333, 576.3333333333334, 610.6666666666666, 570.3333333333334, 641.6666666666666, 579.6666666666666, 511.3333333333333, 576.3333333333334, 579.6666666666666, 607.3333333333334, 672.6666666666666, 542.3333333333334, 511.3333333333333, 635.3333333333334, 474.0, 545.3333333333334, 508.3333333333333, 573.3333333333334, 511.3333333333333, 573.3333333333334, 542.3333333333334, 573.3333333333334, 570.3333333333334, 542.3333333333334, 539.3333333333334, 347.0, 480.3333333333333, 545.3333333333334, 474.0, 554.6666666666666, 372.0, 496.0, 651.0, 589.0, 651.0, 558.0, 465.0, 434.0, 620.0, 527.0, 496.0, 651.0, 496.0, 496.0, 620.0, 527.0, 527.0, 620.0, 496.0, 434.0, 527.0, 496.0, 558.0, 620.0, 496.0, 496.0, 558.0, 527.0, 620.0, 558.0, 651.0, 651.0, 558.0, 496.0, 558.0, 496.0, 527.0, 558.0, 558.0, 527.0, 496.0, 527.0, 527.0, 620.0, 527.0, 434.0, 403.0, 434.0, 682.0, 496.0, 589.0, 589.0, 527.0, 527.0, 527.0, 558.0, 558.0, 527.0, 465.0, 558.0, 496.0, 527.0, 527.0, 527.0, 527.0, 651.0, 682.0, 465.0, 372.0, 372.0, 465.0, 496.0, 651.0, 589.0, 713.0, 620.0, 589.0, 589.0, 527.0, 372.0, 682.0, 496.0, 403.0, 434.0, 651.0, 558.0, 434.0, 496.0, 496.0, 434.0, 465.0, 465.0, 558.0, 558.0, 651.0, 620.0, 465.0, 620.0, 744.0, 589.0, 558.0, 620.0, 682.0, 558.0, 620.0, 527.0, 651.0, 434.0, 465.0, 558.0, 496.0, 527.0, 558.0, 682.0, 589.0, 651.0, 589.0, 651.0, 682.0, 651.0, 682.0, 589.0, 527.0, 527.0, 434.0, 496.0, 527.0, 496.0, 558.0, 589.0, 651.0, 589.0, 527.0, 589.0, 558.0, 589.0, 527.0, 527.0, 465.0, 558.0, 620.0, 496.0, 620.0, 527.0, 558.0, 651.0, 496.0, 589.0, 589.0, 620.0, 558.0, 589.0, 713.0, 558.0, 558.0, 527.0, 465.0, 651.0, 558.0, 527.0, 589.0, 589.0, 558.0, 465.0, 496.0, 589.0, 589.0, 589.0, 651.0, 589.0, 558.0, 527.0, 527.0, 527.0, 527.0, 434.0, 589.0]","[580.0, 582.0, 582.0, 584.3333333333334, 576.6666666666666, 587.3333333333334, 580.0, 580.0, 569.3333333333334, 558.6666666666666, 546.0, 535.3333333333334, 522.6666666666666, 506.6666666666667, 501.3333333333333, 501.3333333333333, 501.3333333333333, 508.6666666666667, 521.3333333333334, 521.3333333333334, 521.3333333333334, 514.0, 503.3333333333333, 498.0, 490.6666666666667, 498.0, 503.3333333333333, 508.6666666666667, 516.0, 521.3333333333334, 539.3333333333334, 557.6666666666666, 581.0, 606.3333333333334, 632.0, 657.3333333333334, 695.6666666666666, 713.6666666666666, 737.3333333333334, 742.6666666666666, 737.3333333333334, 737.3333333333334, 734.0, 741.3333333333334, 743.3333333333334, 745.6666666666666, 745.6666666666666, 740.3333333333334, 735.0, 735.0, 722.6666666666666, 722.6666666666666, 724.3333333333334, 719.0, 708.3333333333334, 696.0, 696.0, 689.3333333333334, 670.3333333333334, 651.3333333333334, 639.0, 627.0, 627.0, 627.0, 627.0, 627.0, 627.0, 627.0, 613.3333333333334, 611.6666666666666, 615.6666666666666, 626.3333333333334, 649.0, 654.3333333333334, 654.3333333333334, 642.3333333333334, 635.6666666666666, 628.6666666666666, 627.3333333333334, 620.3333333333334, 620.3333333333334, 627.3333333333334, 622.0, 623.3333333333334, 630.3333333333334, 630.3333333333334, 635.6666666666666, 637.0, 635.6666666666666, 635.6666666666666, 628.6666666666666, 634.0, 646.3333333333334, 646.3333333333334, 641.0, 637.0, 626.3333333333334, 645.3333333333334, 675.0, 692.3333333333334, 704.6666666666666, 699.3333333333334, 706.0, 707.6666666666666, 707.6666666666666, 713.0, 713.0, 713.0, 719.6666666666666, 714.3333333333334, 726.6666666666666, 710.6666666666666, 712.0, 713.6666666666666, 713.6666666666666, 713.6666666666666, 724.3333333333334, 719.0, 724.3333333333334, 719.0, 707.3333333333334, 695.6666666666666, 686.0, 680.6666666666666, 687.0, 676.3333333333334, 670.0, 647.6666666666666, 637.0, 620.3333333333334, 608.6666666666666, 603.3333333333334, 597.3333333333334, 597.3333333333334, 601.6666666666666, 612.3333333333334, 610.6666666666666, 615.0, 613.3333333333334, 612.3333333333334, 607.0, 601.6666666666666, 596.3333333333334, 601.6666666666666, 595.6666666666666, 594.6666666666666, 589.3333333333334, 584.0, 595.6666666666666, 601.0, 618.6666666666666, 636.3333333333334, 648.0, 654.0, 659.3333333333334, 659.3333333333334, 659.3333333333334, 654.0, 665.6666666666666, 688.6666666666666, 688.6666666666666, 689.6666666666666, 685.0, 686.0, 692.3333333333334, 692.3333333333334, 692.3333333333334, 692.3333333333334, 692.3333333333334, 697.6666666666666, 697.6666666666666, 691.6666666666666, 697.0, 697.0, 702.3333333333334, 707.6666666666666, 713.0, 724.0, 724.0, 735.0, 740.3333333333334, 740.3333333333334, 735.0, 724.3333333333334, 719.0, 719.0, 719.0, 719.0, 713.6666666666666, 708.3333333333334, 703.0, 692.3333333333334, 676.3333333333334, 665.6666666666666, 660.3333333333334, 655.0, 649.6666666666666, 655.0, 660.3333333333334, 665.6666666666666, 671.0, 671.0, 676.3333333333334, 681.6666666666666, 681.6666666666666, 676.3333333333334, 671.0, 671.0, 671.0, 671.0, 665.6666666666666, 655.0, 660.3333333333334, 660.3333333333334, 671.0, 676.3333333333334, 681.6666666666666, 692.3333333333334, 692.3333333333334, 697.6666666666666, 692.3333333333334, 681.6666666666666, 676.3333333333334, 671.0, 655.0, 649.6666666666666, 639.0, 628.3333333333334, 623.0, 617.6666666666666, 617.6666666666666, 607.0, 596.3333333333334, 601.6666666666666, 601.6666666666666, 601.6666666666666, 601.6666666666666, 596.3333333333334, 591.0, 580.3333333333334, 580.3333333333334, 601.6666666666666, 623.0, 633.6666666666666, 633.6666666666666, 649.6666666666666, 644.3333333333334, 644.3333333333334, 649.6666666666666, 649.6666666666666, 655.0, 655.0, 649.6666666666666, 655.0, 655.0, 660.3333333333334, 665.6666666666666, 671.0, 671.0, 671.0, 660.3333333333334, 655.0, 655.0, 639.0, 633.6666666666666, 633.6666666666666, 628.3333333333334, 628.3333333333334, 623.0, 628.3333333333334, 628.3333333333334, 633.6666666666666, 628.3333333333334, 628.3333333333334, 628.3333333333334, 628.3333333333334, 543.0]"
270,3,"[558.0, 558.0, 558.0, 558.0, 558.0, 558.0, 558.0, 558.0, 558.0, 558.0, 558.0, 558.0, 558.0, 558.0, 558.0, 558.0, 558.0, 558.0, 558.0, 558.0, 558.0, 558.0, 558.0, 558.0, 558.0, 558.0, 558.0, 558.0, 558.0, 558.0, 558.0, 558.0, 558.0, 558.0, 558.0, 558.0, 558.0, 558.0, 558.0, 558.0, 558.0, 558.0, 558.0, 558.0, 558.0, 558.0, 558.0, 558.0, 558.0, 558.0, 558.0, 558.0, 558.0, 558.0, 558.0, 558.0, 558.0, 558.0, 558.0, 558.0, 558.0, 558.0, 558.0, 558.0, 558.0, 558.0, 558.0, 558.0, 558.0, 558.0, 558.0, 558.0, 558.0, 558.0, 558.0, 558.0, 558.0, 558.0, 558.0, 558.0, 558.0, 558.0, 558.0, 558.0, 558.0, 558.0, 558.0, 558.0, 558.0, 558.0, 558.0, 558.0, 558.0, 558.0, 558.0, 558.0, 558.0, 558.0, 558.0, 558.0, 558.0, 558.0, 558.0, 558.0, 558.0, 558.0, 558.0, 558.0, 558.0, 558.0, 558.0, 558.0, 558.0, 558.0, 558.0, 558.0, 558.0, 558.0, 558.0, 558.0, 558.0, 558.0, 558.0, 558.0, 558.0, 558.0, 558.0, 558.0, 558.0, 558.0, 558.0, 558.0, 558.0, 558.0, 558.0, 558.0, 558.0, 558.0, 558.0, 558.0, 558.0, 558.0, 558.0, 558.0, 558.0, 558.0, 558.0, 558.0, 558.0, 558.0, 558.0, 558.0, 558.0, 558.0, 558.0, 558.0, 558.0, 558.0, 558.0, 558.0, 558.0, 558.0, 558.0, 558.0, 558.0, 558.0, 558.0, 558.0, 558.0, 558.0, 558.0, 558.0, 558.0, 558.0, 558.0, 558.0, 558.0, 558.0, 558.0, 558.0, 558.0, 558.0, 558.0, 558.0, 558.0, 558.0, 558.0, 558.0, 558.0, 558.0, 558.0, 558.0, 558.0, 558.0, 558.0, 558.0, 558.0, 558.0, 558.0, 558.0, 558.0, 558.0, 558.0, 558.0, 558.0, 558.0, 558.0, 558.0, 558.0, 558.0, 558.0, 558.0, 558.0, 558.0, 558.0, 558.0, 558.0, 558.0, 558.0, 558.0, 558.0, 558.0, 558.0, 558.0, 558.0, 558.0, 558.0, 558.0, 558.0, 558.0, 558.0, 558.0, 558.0, 558.0, 558.0, 558.0, 558.0, 558.0, 558.0, 558.0, 558.0, 558.0, 558.0, 558.0, 558.0, 558.0, 558.0, 558.0, 558.0, 558.0, 558.0, 558.0, 558.0, 558.0, 558.0, 558.0, 558.0, 558.0, 558.0, 558.0, 558.0, 558.0, 558.0, 558.0, 558.0, 558.0, 558.0, 558.0, 558.0, 558.0, 558.0, 558.0, 558.0, 558.0, 558.0, 558.0, 558.0, 558.0, 558.0]","[31.333333333333332, 42.0, 42.0, 42.0, 42.0, 42.0, 42.0, 42.0, 42.0, 42.0, 42.0, 42.0, 42.0, 47.333333333333336, 42.0, 42.0, 47.333333333333336, 47.333333333333336, 52.666666666666664, 52.666666666666664, 52.666666666666664, 52.666666666666664, 47.333333333333336, 47.333333333333336, 47.333333333333336, 47.333333333333336, 47.333333333333336, 52.666666666666664, 52.666666666666664, 52.666666666666664, 52.666666666666664, 52.666666666666664, 52.666666666666664, 52.666666666666664, 52.666666666666664, 52.666666666666664, 52.666666666666664, 52.666666666666664, 52.666666666666664, 52.666666666666664, 52.666666666666664, 52.666666666666664, 52.666666666666664, 52.666666666666664, 52.666666666666664, 52.666666666666664, 52.666666666666664, 47.333333333333336, 47.333333333333336, 42.0, 42.0, 42.0, 42.0, 36.666666666666664, 36.666666666666664, 31.333333333333332, 26.0, 26.0, 26.0, 26.0, 31.333333333333332, 31.333333333333332, 31.333333333333332, 31.333333333333332, 31.333333333333332, 36.333333333333336, 36.333333333333336, 31.333333333333332, 31.333333333333332, 31.333333333333332, 31.333333333333332, 31.333333333333332, 31.333333333333332, 31.333333333333332, 31.333333333333332, 26.0, 20.666666666666668, 20.666666666666668, 20.666666666666668, 26.0, 31.333333333333332, 26.0, 26.0, 26.0, 26.0, 26.0, 31.333333333333332, 26.0, 26.0, 20.666666666666668, 20.666666666666668, 20.666666666666668, 20.666666666666668, 20.666666666666668, 20.666666666666668, 20.666666666666668, 26.0, 26.0, 31.333333333333332, 31.333333333333332, 31.333333333333332, 31.333333333333332, 31.333333333333332, 31.333333333333332, 31.333333333333332, 31.333333333333332, 31.333333333333332, 31.333333333333332, 26.0, 26.0, 20.666666666666668, 20.666666666666668, 26.0, 26.0, 31.333333333333332, 31.333333333333332, 31.333333333333332, 31.333333333333332, 31.333333333333332, 26.0, 26.0, 20.666666666666668, 20.666666666666668, 20.666666666666668, 20.666666666666668, 20.666666666666668, 20.666666666666668, 20.666666666666668, 20.666666666666668, 20.666666666666668, 20.666666666666668, 20.666666666666668, 26.0, 26.0, 31.333333333333332, 36.666666666666664, 42.0, 42.0, 36.666666666666664, 31.333333333333332, 31.333333333333332, 36.333333333333336, 36.333333333333336, 41.666666666666664, 41.666666666666664, 41.666666666666664, 41.666666666666664, 41.666666666666664, 47.0, 47.0, 52.333333333333336, 52.333333333333336, 47.0, 47.0, 42.0, 42.0, 42.0, 42.0, 42.0, 42.0, 42.0, 42.0, 42.0, 42.0, 42.0, 42.0, 42.0, 42.0, 42.0, 42.0, 42.0, 42.0, 42.0, 36.666666666666664, 36.666666666666664, 31.333333333333332, 31.333333333333332, 31.333333333333332, 31.333333333333332, 36.666666666666664, 36.666666666666664, 36.666666666666664, 36.666666666666664, 31.333333333333332, 31.333333333333332, 31.333333333333332, 31.333333333333332, 31.333333333333332, 31.333333333333332, 31.333333333333332, 31.333333333333332, 31.333333333333332, 31.333333333333332, 26.0, 31.0, 25.666666666666668, 31.0, 31.0, 36.333333333333336, 41.666666666666664, 36.333333333333336, 36.333333333333336, 31.0, 31.0, 31.0, 31.0, 31.0, 31.0, 31.0, 31.0, 31.0, 31.0, 31.0, 31.0, 31.0, 31.0, 31.0, 31.0, 31.0, 31.0, 31.0, 31.0, 31.0, 31.0, 31.0, 31.0, 31.0, 31.0, 31.0, 36.333333333333336, 36.333333333333336, 36.333333333333336, 36.333333333333336, 31.0, 31.0, 31.0, 31.0, 31.0, 31.0, 31.0, 31.0, 31.0, 31.0, 31.0, 31.0, 31.0, 31.0, 31.0, 31.0, 31.0, 31.0, 31.0, 31.0, 31.0, 31.0, 31.0, 31.0, 31.0, 31.0, 31.0, 31.0, 36.333333333333336, 36.333333333333336, 41.666666666666664, 41.666666666666664, 47.0, 47.0, 47.0, 47.0, 52.333333333333336, 52.333333333333336, 52.333333333333336, 52.333333333333336, 52.333333333333336, 52.333333333333336, 52.333333333333336, 52.333333333333336, 52.333333333333336, 52.333333333333336]"
270,4,"[558.0, 558.0, 558.0, 558.0, 558.0, 558.0, 558.0, 558.0, 558.0, 558.0, 558.0, 558.0, 558.0, 558.0, 558.0, 558.0, 558.0, 558.0, 558.0, 558.0, 558.0, 558.0, 558.0, 558.0, 558.0, 558.0, 558.0, 558.0, 558.0, 558.0, 558.0, 558.0, 558.0, 558.0, 558.0, 558.0, 558.0, 558.0, 558.0, 558.0, 558.0, 558.0, 558.0, 558.0, 558.0, 558.0, 558.0, 558.0, 558.0, 558.0, 527.0, 558.0, 558.0, 558.0, 558.0, 558.0, 558.0, 558.0, 558.0, 558.0, 558.0, 558.0, 558.0, 558.0, 558.0, 558.0, 558.0, 558.0, 558.0, 558.0, 558.0, 558.0, 558.0, 558.0, 558.0, 558.0, 558.0, 558.0, 558.0, 558.0, 527.0, 558.0, 558.0, 527.0, 527.0, 558.0, 558.0, 558.0, 558.0, 558.0, 558.0, 527.0, 558.0, 558.0, 558.0, 558.0, 558.0, 558.0, 558.0, 558.0, 558.0, 558.0, 558.0, 558.0, 558.0, 558.0, 558.0, 558.0, 558.0, 558.0, 558.0, 558.0, 558.0, 558.0, 558.0, 558.0, 558.0, 558.0, 558.0, 558.0, 527.0, 558.0, 558.0, 558.0, 558.0, 558.0, 558.0, 558.0, 558.0, 558.0, 558.0, 558.0, 558.0, 558.0, 558.0, 558.0, 558.0, 558.0, 558.0, 558.0, 558.0, 558.0, 558.0, 558.0, 558.0, 558.0, 558.0, 558.0, 558.0, 558.0, 558.0, 558.0, 558.0, 558.0, 558.0, 558.0, 589.0, 558.0, 589.0, 558.0, 558.0, 558.0, 558.0, 558.0, 558.0, 558.0, 558.0, 558.0, 558.0, 558.0, 558.0, 558.0, 558.0, 558.0, 558.0, 558.0, 589.0, 558.0, 558.0, 558.0, 558.0, 558.0, 558.0, 527.0, 558.0, 558.0, 558.0, 558.0, 558.0, 558.0, 558.0, 558.0, 558.0, 558.0, 558.0, 558.0, 558.0, 558.0, 558.0, 558.0, 558.0, 558.0, 558.0, 558.0, 558.0, 558.0, 558.0, 558.0, 558.0, 558.0, 558.0, 558.0, 558.0, 558.0, 558.0, 558.0, 558.0, 558.0, 558.0, 558.0, 558.0, 558.0, 558.0, 558.0, 589.0, 558.0, 558.0, 558.0, 527.0, 527.0, 558.0, 558.0, 558.0, 558.0, 558.0, 558.0, 558.0, 558.0, 558.0, 558.0, 558.0, 558.0, 558.0, 558.0, 558.0, 558.0, 558.0, 558.0, 558.0, 558.0, 558.0, 558.0, 558.0, 558.0, 527.0, 558.0, 558.0, 558.0, 558.0, 558.0, 558.0, 558.0, 558.0, 558.0, 558.0, 558.0, 558.0, 558.0, 558.0, 589.0, 558.0, 558.0, 558.0, 558.0, 558.0, 558.0]","[68.33333333333333, 63.0, 63.0, 89.66666666666667, 89.66666666666667, 84.33333333333333, 84.33333333333333, 79.0, 79.0, 73.66666666666667, 73.66666666666667, 73.66666666666667, 73.66666666666667, 73.66666666666667, 73.66666666666667, 79.0, 79.0, 79.0, 84.33333333333333, 84.33333333333333, 84.33333333333333, 84.33333333333333, 84.33333333333333, 84.33333333333333, 84.33333333333333, 84.33333333333333, 84.33333333333333, 84.33333333333333, 89.66666666666667, 89.66666666666667, 95.0, 95.0, 89.66666666666667, 89.66666666666667, 84.33333333333333, 84.33333333333333, 84.33333333333333, 89.66666666666667, 89.66666666666667, 95.0, 95.0, 95.0, 89.66666666666667, 89.66666666666667, 89.66666666666667, 89.66666666666667, 95.0, 100.33333333333333, 105.66666666666667, 100.33333333333333, 100.33333333333333, 95.0, 95.0, 89.66666666666667, 84.33333333333333, 84.33333333333333, 84.33333333333333, 84.33333333333333, 84.33333333333333, 84.33333333333333, 84.33333333333333, 84.33333333333333, 84.33333333333333, 89.66666666666667, 89.66666666666667, 95.0, 95.0, 100.33333333333333, 100.33333333333333, 105.66666666666667, 105.66666666666667, 105.66666666666667, 105.66666666666667, 105.66666666666667, 105.66666666666667, 105.66666666666667, 105.66666666666667, 105.66666666666667, 105.66666666666667, 105.66666666666667, 105.66666666666667, 105.66666666666667, 111.0, 116.33333333333333, 116.33333333333333, 116.33333333333333, 105.66666666666667, 105.66666666666667, 95.0, 95.0, 95.0, 95.0, 95.0, 95.0, 95.0, 95.0, 95.0, 95.0, 95.0, 95.0, 89.66666666666667, 84.33333333333333, 84.33333333333333, 84.33333333333333, 84.33333333333333, 84.33333333333333, 84.33333333333333, 84.33333333333333, 84.33333333333333, 84.33333333333333, 84.33333333333333, 79.0, 79.0, 73.66666666666667, 68.33333333333333, 68.33333333333333, 63.0, 63.0, 68.33333333333333, 73.66666666666667, 79.0, 84.33333333333333, 84.33333333333333, 84.33333333333333, 84.33333333333333, 84.33333333333333, 84.33333333333333, 79.0, 79.0, 79.0, 79.0, 84.33333333333333, 84.33333333333333, 84.33333333333333, 84.33333333333333, 84.33333333333333, 84.33333333333333, 84.33333333333333, 84.33333333333333, 84.33333333333333, 84.33333333333333, 84.33333333333333, 84.33333333333333, 79.0, 79.0, 73.66666666666667, 73.66666666666667, 73.66666666666667, 73.66666666666667, 79.0, 79.0, 73.66666666666667, 73.66666666666667, 79.0, 79.0, 89.66666666666667, 89.66666666666667, 89.66666666666667, 89.66666666666667, 89.66666666666667, 89.66666666666667, 95.0, 95.0, 100.33333333333333, 100.33333333333333, 105.66666666666667, 105.66666666666667, 105.66666666666667, 105.66666666666667, 105.66666666666667, 105.66666666666667, 105.66666666666667, 105.66666666666667, 111.0, 116.33333333333333, 111.0, 116.33333333333333, 105.66666666666667, 105.66666666666667, 105.66666666666667, 105.66666666666667, 105.66666666666667, 100.33333333333333, 100.33333333333333, 100.33333333333333, 100.33333333333333, 100.33333333333333, 100.33333333333333, 100.33333333333333, 100.33333333333333, 100.33333333333333, 95.0, 95.0, 95.0, 95.0, 89.66666666666667, 89.66666666666667, 84.33333333333333, 84.33333333333333, 84.33333333333333, 84.33333333333333, 84.33333333333333, 79.0, 73.66666666666667, 73.66666666666667, 68.33333333333333, 68.33333333333333, 73.66666666666667, 73.66666666666667, 73.66666666666667, 73.66666666666667, 73.66666666666667, 79.0, 79.0, 84.33333333333333, 84.33333333333333, 84.33333333333333, 89.66666666666667, 89.66666666666667, 95.0, 95.0, 95.0, 95.0, 95.0, 95.0, 95.0, 95.0, 100.33333333333333, 100.33333333333333, 105.66666666666667, 105.66666666666667, 105.66666666666667, 105.66666666666667, 111.0, 116.33333333333333, 116.33333333333333, 116.33333333333333, 116.33333333333333, 116.33333333333333, 116.33333333333333, 116.33333333333333, 116.33333333333333, 116.33333333333333, 116.33333333333333, 116.33333333333333, 116.33333333333333, 116.33333333333333, 111.0, 111.0, 105.66666666666667, 105.66666666666667, 105.66666666666667, 105.66666666666667, 105.66666666666667, 105.66666666666667, 105.66666666666667, 105.66666666666667, 105.66666666666667, 105.66666666666667, 105.66666666666667, 105.66666666666667, 105.66666666666667, 105.66666666666667, 105.66666666666667, 105.66666666666667, 105.66666666666667, 105.66666666666667, 100.33333333333333, 100.33333333333333, 95.0, 95.0, 95.0, 100.33333333333333, 105.66666666666667, 105.66666666666667, 95.0]"
512,1,"[511.0, 511.0, 511.0, 511.0, 511.0, 511.0, 511.0, 511.0, 511.0, 511.0, 511.0, 511.0, 511.0, 511.0, 511.0, 511.0, 511.0, 511.0, 511.0, 511.0, 511.0, 511.0, 511.0, 511.0, 511.0, 511.0, 511.0, 511.0, 511.0, 511.0, 511.0, 511.0, 511.0, 511.0, 511.0, 511.0, 511.0, 511.0, 511.0, 511.0, 511.0, 511.0, 511.0, 511.0, 511.0, 511.0, 511.0, 511.0, 511.0, 511.0, 511.0, 511.0, 511.0, 511.0, 511.0, 511.0, 511.0, 511.0, 511.0, 511.0, 511.0, 511.0, 511.0, 511.0, 511.0, 511.0, 511.0, 511.0, 511.0, 511.0, 511.0, 511.0, 511.0, 511.0, 511.0, 511.0, 511.0, 511.0, 511.0, 511.0, 511.0, 511.0, 511.0, 511.0, 511.0, 511.0, 511.0, 511.0, 511.0, 511.0, 511.0, 511.0, 511.0, 511.0, 511.0, 511.0, 511.0, 511.0, 511.0, 511.0, 511.0, 511.0, 511.0, 511.0, 511.0, 511.0, 511.0, 511.0, 511.0, 511.0, 511.0, 511.0, 511.0, 511.0, 511.0, 511.0, 511.0, 511.0, 511.0, 511.0, 511.0, 511.0, 511.0, 511.0, 511.0, 511.0, 511.0, 511.0, 511.0, 511.0, 511.0, 511.0, 511.0, 511.0, 511.0, 511.0, 511.0, 511.0, 511.0, 511.0, 511.0, 511.0, 511.0, 511.0, 511.0, 511.0, 511.0, 511.0, 511.0, 511.0, 511.0, 511.0, 511.0, 511.0, 511.0, 511.0, 511.0, 511.0, 511.0, 511.0, 511.0, 511.0, 511.0, 511.0, 511.0, 511.0, 511.0, 511.0, 511.0, 511.0, 511.0, 511.0, 511.0, 511.0, 511.0, 511.0, 511.0, 511.0, 511.0, 511.0, 511.0, 511.0, 511.0, 511.0, 511.0, 511.0, 511.0, 511.0, 511.0, 511.0, 511.0, 511.0, 511.0, 511.0, 511.0, 511.0, 511.0, 511.0, 511.0, 511.0, 511.0, 511.0, 511.0, 511.0, 511.0, 511.0, 511.0, 511.0, 511.0, 511.0, 511.0, 511.0, 511.0, 511.0, 511.0, 511.0, 511.0, 511.0, 511.0, 511.0, 511.0, 511.0, 511.0, 511.0, 511.0, 511.0, 511.0, 511.0, 511.0, 511.0, 511.0, 511.0, 511.0, 511.0, 511.0, 511.0, 511.0, 511.0, 511.0, 511.0, 511.0, 511.0, 511.0, 511.0, 511.0, 511.0, 511.0, 511.0, 511.0, 511.0, 511.0, 511.0, 511.0, 511.0, 511.0, 511.0, 511.0, 511.0, 511.0, 511.0, 511.0, 511.0, 511.0, 511.0, 511.0, 511.0, 511.0, 511.0, 511.0, 511.0, 511.0, 511.0, 511.0, 511.0, 511.0, 511.0, 511.0, 511.0, 511.0, 511.0]","[0.0, 0.0, 0.0, 0.0, 0.0, 0.0, 0.0, 0.0, 0.0, 0.0, 0.0, 0.0, 0.0, 0.0, 0.0, 0.0, 0.0, 0.0, 0.0, 0.0, 0.0, 0.0, 0.0, 0.0, 0.0, 0.0, 0.0, 0.0, 0.0, 0.0, 0.0, 0.0, 0.0, 0.0, 0.0, 0.0, 0.0, 0.0, 0.0, 0.0, 0.0, 0.0, 0.0, 0.0, 0.0, 0.0, 0.0, 0.0, 0.0, 0.0, 0.0, 0.0, 0.0, 0.0, 0.0, 0.0, 0.0, 0.0, 0.0, 0.0, 0.0, 0.0, 0.0, 0.0, 0.0, 0.0, 0.0, 0.0, 0.0, 0.0, 0.0, 0.0, 0.0, 0.0, 0.0, 0.0, 0.0, 0.0, 0.0, 0.0, 0.0, 0.0, 0.0, 0.0, 0.0, 0.0, 0.0, 0.0, 0.0, 0.0, 0.0, 0.0, 0.0, 0.0, 0.0, 0.0, 0.0, 0.0, 0.0, 0.0, 0.0, 0.0, 0.0, 0.0, 0.0, 0.0, 0.0, 0.0, 0.0, 0.0, 0.0, 0.0, 0.0, 0.0, 0.0, 0.0, 0.0, 0.0, 0.0, 0.0, 0.0, 0.0, 0.0, 0.0, 0.0, 0.0, 0.0, 0.0, 0.0, 0.0, 0.0, 0.0, 0.0, 0.0, 0.0, 0.0, 0.0, 0.0, 0.0, 0.0, 0.0, 0.0, 0.0, 0.0, 0.0, 0.0, 0.0, 0.0, 0.0, 0.0, 0.0, 0.0, 0.0, 0.0, 0.0, 0.0, 0.0, 0.0, 0.0, 0.0, 0.0, 0.0, 0.0, 0.0, 0.0, 0.0, 0.0, 0.0, 0.0, 0.0, 0.0, 0.0, 0.0, 0.0, 0.0, 0.0, 0.0, 0.0, 0.0, 0.0, 0.0, 0.0, 0.0, 0.0, 0.0, 0.0, 0.0, 0.0, 0.0, 0.0, 0.0, 0.0, 0.0, 0.0, 0.0, 0.0, 0.0, 0.0, 0.0, 0.0, 0.0, 0.0, 0.0, 0.0, 0.0, 0.0, 0.0, 0.0, 0.0, 0.0, 0.0, 0.0, 0.0, 0.0, 0.0, 0.0, 0.0, 0.0, 0.0, 0.0, 0.0, 0.0, 0.0, 0.0, 0.0, 0.0, 0.0, 0.0, 0.0, 0.0, 0.0, 0.0, 0.0, 0.0, 0.0, 0.0, 0.0, 0.0, 0.0, 0.0, 0.0, 0.0, 0.0, 0.0, 0.0, 0.0, 0.0, 0.0, 0.0, 0.0, 0.0, 0.0, 0.0, 0.0, 0.0, 0.0, 0.0, 0.0, 0.0, 0.0, 0.0, 0.0, 0.0, 0.0, 0.0, 0.0, 0.0, 0.0, 0.0, 0.0, 0.0, 0.0, 0.0, 0.0, 0.0, 0.0, 0.0, 0.0, 0.0, 0.0]"
512,2,"[545.0, 511.0, 511.0, 477.0, 477.0, 545.0, 545.0, 545.0, 511.0, 545.0, 545.0, 511.0, 511.0, 511.0, 511.0, 511.0, 511.0, 511.0, 511.0, 511.0, 511.0, 511.0, 511.0, 511.0, 511.0, 511.0, 477.0, 511.0, 511.0, 511.0, 545.0, 545.0, 511.0, 511.0, 511.0, 511.0, 511.0, 511.0, 545.0, 511.0, 477.0, 511.0, 511.0, 511.0, 511.0, 511.0, 511.0, 511.0, 511.0, 511.0, 477.0, 511.0, 511.0, 511.0, 477.0, 511.0, 511.0, 511.0, 545.0, 511.0, 511.0, 511.0, 511.0, 511.0, 477.0, 545.0, 545.0, 511.0, 511.0, 511.0, 545.0, 545.0, 511.0, 511.0, 511.0, 511.0, 511.0, 477.0, 477.0, 442.6666666666667, 511.0, 545.0, 477.0, 477.0, 511.0, 511.0, 511.0, 511.0, 511.0, 511.0, 477.0, 511.0, 511.0, 477.0, 477.0, 511.0, 511.0, 511.0, 477.0, 443.0, 477.0, 477.0, 511.0, 511.0, 511.0, 511.0, 477.0, 579.0, 511.0, 545.0, 579.0, 511.0, 511.0, 511.0, 545.0, 511.0, 511.0, 511.0, 511.0, 511.0, 511.0, 545.0, 511.0, 511.0, 511.0, 545.0, 511.0, 511.0, 545.0, 511.0, 511.0, 511.0, 477.0, 511.0, 511.0, 511.0, 545.0, 511.0, 511.0, 545.0, 545.0, 477.0, 511.0, 477.0, 511.0, 477.0, 443.0, 477.0, 477.0, 477.0, 511.0, 511.0, 511.0, 511.0, 545.0, 545.0, 511.0, 511.0, 511.0, 545.0, 545.0, 545.0, 511.0, 579.3333333333334, 579.3333333333334, 511.0, 477.0, 477.0, 374.6666666666667, 476.6666666666667, 579.0, 511.0, 613.3333333333334, 579.3333333333334, 613.3333333333334, 579.3333333333334, 511.0, 545.0, 442.6666666666667, 511.0, 511.0, 579.3333333333334, 511.0, 511.0, 511.0, 477.0, 511.0, 511.0, 545.0, 511.0, 579.3333333333334, 613.3333333333334, 511.0, 477.0, 511.0, 408.6666666666667, 477.0, 511.0, 477.0, 511.0, 511.0, 511.0, 545.0, 545.0, 545.0, 477.0, 545.0, 511.0, 511.0, 545.0, 511.0, 511.0, 511.0, 579.0, 545.0, 545.0, 579.3333333333334, 477.0, 477.0, 545.0, 511.0, 511.0, 511.0, 511.0, 477.0, 545.0, 545.0, 511.0, 545.0, 477.0, 477.0, 511.0, 511.0, 477.0, 511.0, 511.0, 511.0, 477.0, 477.0, 545.0, 511.0, 511.0, 511.0, 545.0, 511.0, 477.0, 511.0, 477.0, 511.0, 511.0, 511.0, 511.0, 511.0, 511.0, 511.0, 511.0, 545.0, 511.0, 511.0, 511.0, 511.0, 511.0, 511.0, 511.0, 545.0, 511.0, 511.0, 511.0, 511.0, 511.0, 579.3333333333334, 579.3333333333334, 511.0, 545.0, 579.3333333333334, 545.0, 511.0, 511.0, 511.0, 477.0]","[188.33333333333334, 188.33333333333334, 130.33333333333334, 137.66666666666666, 137.66666666666666, 137.66666666666666, 145.0, 152.33333333333334, 152.33333333333334, 159.33333333333334, 159.33333333333334, 159.33333333333334, 152.33333333333334, 152.33333333333334, 152.33333333333334, 152.33333333333334, 152.33333333333334, 159.33333333333334, 152.33333333333334, 152.33333333333334, 145.0, 145.0, 137.66666666666666, 130.33333333333334, 123.33333333333333, 116.0, 116.0, 116.0, 116.0, 116.0, 116.0, 116.0, 116.0, 108.66666666666667, 108.66666666666667, 108.66666666666667, 108.66666666666667, 108.66666666666667, 116.0, 116.0, 116.0, 116.0, 123.33333333333333, 130.33333333333334, 137.66666666666666, 137.66666666666666, 145.0, 145.0, 145.0, 145.0, 137.66666666666666, 137.66666666666666, 130.33333333333334, 123.33333333333333, 123.0, 130.33333333333334, 137.66666666666666, 137.66666666666666, 145.0, 152.0, 159.33333333333334, 166.66666666666666, 159.33333333333334, 159.33333333333334, 166.66666666666666, 174.0, 166.66666666666666, 173.66666666666666, 181.0, 188.33333333333334, 203.0, 210.33333333333334, 217.33333333333334, 217.33333333333334, 224.33333333333334, 231.66666666666666, 239.0, 253.66666666666666, 275.3333333333333, 282.3333333333333, 290.0, 297.0, 304.3333333333333, 304.3333333333333, 304.0, 311.3333333333333, 318.6666666666667, 326.0, 318.6666666666667, 325.6666666666667, 333.0, 325.6666666666667, 326.0, 326.0, 333.3333333333333, 333.3333333333333, 348.0, 348.0, 362.0, 354.6666666666667, 354.6666666666667, 347.6666666666667, 347.6666666666667, 340.6666666666667, 326.3333333333333, 311.6666666666667, 311.6666666666667, 319.0, 326.3333333333333, 326.3333333333333, 333.3333333333333, 340.6666666666667, 340.6666666666667, 347.6666666666667, 347.6666666666667, 347.6666666666667, 340.6666666666667, 333.3333333333333, 326.0, 311.6666666666667, 304.6666666666667, 282.6666666666667, 282.6666666666667, 275.3333333333333, 268.0, 275.3333333333333, 260.6666666666667, 260.6666666666667, 268.0, 268.0, 268.0, 246.0, 239.0, 231.66666666666666, 231.66666666666666, 224.66666666666666, 224.66666666666666, 231.66666666666666, 246.33333333333334, 246.33333333333334, 246.33333333333334, 246.33333333333334, 253.66666666666666, 268.0, 275.3333333333333, 290.0, 297.3333333333333, 311.3333333333333, 311.3333333333333, 311.3333333333333, 311.3333333333333, 318.6666666666667, 318.6666666666667, 311.6666666666667, 304.3333333333333, 311.6666666666667, 318.6666666666667, 333.3333333333333, 340.6666666666667, 354.6666666666667, 354.6666666666667, 347.6666666666667, 355.0, 347.6666666666667, 362.0, 376.6666666666667, 383.6666666666667, 398.3333333333333, 398.6666666666667, 398.6666666666667, 398.6666666666667, 405.6666666666667, 420.3333333333333, 427.6666666666667, 435.0, 442.0, 449.3333333333333, 464.0, 464.0, 478.3333333333333, 471.0, 464.0, 464.0, 464.0, 464.0, 464.0, 464.0, 471.0, 485.6666666666667, 478.3333333333333, 471.3333333333333, 456.3333333333333, 463.6666666666667, 471.0, 478.0, 478.0, 478.3333333333333, 478.3333333333333, 478.6666666666667, 471.3333333333333, 471.3333333333333, 464.0, 464.0, 457.0, 449.6666666666667, 449.6666666666667, 449.6666666666667, 449.6666666666667, 457.0, 449.6666666666667, 442.3333333333333, 427.6666666666667, 420.3333333333333, 420.3333333333333, 420.3333333333333, 420.3333333333333, 413.0, 398.3333333333333, 384.0, 369.3333333333333, 362.0, 362.0, 355.0, 355.0, 340.6666666666667, 340.6666666666667, 333.3333333333333, 333.3333333333333, 333.3333333333333, 333.3333333333333, 326.0, 326.0, 318.6666666666667, 318.6666666666667, 319.0, 319.0, 304.3333333333333, 304.3333333333333, 297.0, 297.0, 297.0, 297.0, 297.0, 289.6666666666667, 289.6666666666667, 289.6666666666667, 289.6666666666667, 289.6666666666667, 289.6666666666667, 289.6666666666667, 289.6666666666667, 282.6666666666667, 282.6666666666667, 268.0, 260.6666666666667, 253.33333333333334, 246.0, 246.0, 246.0, 253.33333333333334, 246.0, 246.0, 238.66666666666666, 231.33333333333334, 217.33333333333334, 217.33333333333334, 217.0, 209.66666666666666, 217.0, 217.0, 224.33333333333334, 224.33333333333334, 217.0, 224.33333333333334, 224.33333333333334, 231.66666666666666, 231.66666666666666, 224.66666666666666, 224.66666666666666, 224.66666666666666]"
512,3,"[511.0, 511.0, 511.0, 511.0, 511.0, 511.0, 511.0, 511.0, 511.0, 511.0, 511.0, 511.0, 511.0, 511.0, 511.0, 511.0, 511.0, 511.0, 511.0, 511.0, 511.0, 511.0, 511.0, 511.0, 511.0, 511.0, 511.0, 511.0, 511.0, 511.0, 511.0, 511.0, 511.0, 511.0, 511.0, 511.0, 511.0, 511.0, 511.0, 511.0, 511.0, 511.0, 511.0, 511.0, 511.0, 511.0, 511.0, 511.0, 511.0, 511.0, 511.0, 511.0, 511.0, 511.0, 511.0, 511.0, 511.0, 511.0, 511.0, 511.0, 511.0, 511.0, 511.0, 511.0, 511.0, 511.0, 511.0, 511.0, 511.0, 511.0, 511.0, 511.0, 511.0, 511.0, 511.0, 511.0, 511.0, 511.0, 511.0, 511.0, 511.0, 511.0, 511.0, 511.0, 511.0, 511.0, 511.0, 511.0, 511.0, 511.0, 511.0, 511.0, 511.0, 511.0, 511.0, 511.0, 511.0, 511.0, 511.0, 511.0, 511.0, 545.0, 511.0, 511.0, 511.0, 511.0, 511.0, 511.0, 511.0, 511.0, 511.0, 511.0, 511.0, 511.0, 511.0, 511.0, 511.0, 511.0, 511.0, 511.0, 511.0, 511.0, 511.0, 511.0, 511.0, 511.0, 511.0, 511.0, 511.0, 511.0, 511.0, 511.0, 511.0, 511.0, 511.0, 511.0, 511.0, 511.0, 511.0, 511.0, 511.0, 511.0, 511.0, 511.0, 511.0, 511.0, 511.0, 511.0, 511.0, 511.0, 511.0, 511.0, 511.0, 511.0, 511.0, 511.0, 511.0, 511.0, 511.0, 511.0, 511.0, 511.0, 511.0, 511.0, 511.0, 511.0, 511.0, 511.0, 511.0, 511.0, 511.0, 511.0, 511.0, 511.0, 511.0, 511.0, 511.0, 511.0, 511.0, 511.0, 511.0, 511.0, 511.0, 511.0, 511.0, 511.0, 511.0, 511.0, 511.0, 511.0, 511.0, 511.0, 511.0, 511.0, 511.0, 511.0, 511.0, 511.0, 511.0, 511.0, 511.0, 511.0, 511.0, 511.0, 511.0, 511.0, 477.0, 511.0, 511.0, 511.0, 511.0, 511.0, 511.0, 511.0, 511.0, 511.0, 511.0, 511.0, 511.0, 511.0, 511.0, 511.0, 511.0, 511.0, 511.0, 511.0, 511.0, 511.0, 511.0, 511.0, 511.0, 511.0, 511.0, 511.0, 511.0, 511.0, 511.0, 511.0, 511.0, 511.0, 511.0, 511.0, 511.0, 511.0, 511.0, 511.0, 511.0, 511.0, 511.0, 511.0, 511.0, 511.0, 511.0, 511.0, 511.0, 511.0, 511.0, 511.0, 511.0, 511.0, 511.0, 511.0, 511.0, 511.0, 511.0, 511.0, 511.0, 511.0, 511.0, 511.0, 511.0, 511.0, 511.0, 511.0, 511.0, 511.0, 511.0, 511.0, 511.0]","[43.333333333333336, 43.333333333333336, 0.0, 0.0, 0.0, 0.0, 0.0, 0.0, 0.0, 0.0, 0.0, 0.0, 0.0, 0.0, 0.0, 0.0, 0.0, 0.0, 0.0, 0.0, 0.0, 0.0, 7.0, 14.333333333333334, 14.333333333333334, 14.333333333333334, 14.333333333333334, 14.333333333333334, 14.333333333333334, 21.666666666666668, 21.666666666666668, 29.0, 29.0, 29.0, 29.0, 36.0, 36.0, 43.333333333333336, 43.333333333333336, 43.333333333333336, 43.333333333333336, 43.333333333333336, 43.333333333333336, 43.333333333333336, 43.333333333333336, 43.333333333333336, 43.333333333333336, 43.333333333333336, 43.333333333333336, 43.333333333333336, 43.333333333333336, 36.0, 36.0, 29.0, 29.0, 29.0, 29.0, 29.0, 29.0, 29.0, 29.0, 29.0, 29.0, 29.0, 36.0, 36.0, 36.0, 36.0, 36.0, 36.0, 43.333333333333336, 36.0, 36.0, 36.0, 36.0, 36.0, 43.333333333333336, 43.333333333333336, 43.333333333333336, 43.333333333333336, 43.333333333333336, 43.333333333333336, 43.333333333333336, 43.333333333333336, 43.333333333333336, 43.333333333333336, 43.333333333333336, 43.333333333333336, 43.333333333333336, 43.333333333333336, 43.333333333333336, 43.333333333333336, 36.0, 29.0, 29.0, 36.0, 36.0, 36.0, 36.0, 36.0, 36.0, 43.333333333333336, 43.333333333333336, 43.333333333333336, 43.333333333333336, 43.333333333333336, 43.333333333333336, 36.0, 29.0, 29.0, 29.0, 29.0, 36.0, 36.0, 43.333333333333336, 43.333333333333336, 43.333333333333336, 43.333333333333336, 43.333333333333336, 43.333333333333336, 43.333333333333336, 36.0, 36.0, 29.0, 29.0, 29.0, 29.0, 29.0, 29.0, 36.0, 36.0, 43.333333333333336, 43.333333333333336, 43.333333333333336, 43.333333333333336, 43.333333333333336, 43.333333333333336, 43.333333333333336, 43.333333333333336, 36.0, 36.0, 29.0, 29.0, 29.0, 29.0, 29.0, 29.0, 29.0, 29.0, 29.0, 29.0, 29.0, 29.0, 29.0, 29.0, 29.0, 29.0, 29.0, 29.0, 29.0, 29.0, 29.0, 36.0, 36.0, 36.0, 29.0, 29.0, 29.0, 29.0, 29.0, 29.0, 29.0, 29.0, 29.0, 29.0, 36.0, 36.0, 43.333333333333336, 43.333333333333336, 43.333333333333336, 43.333333333333336, 43.333333333333336, 43.333333333333336, 43.333333333333336, 43.333333333333336, 43.333333333333336, 43.333333333333336, 50.333333333333336, 50.333333333333336, 57.666666666666664, 57.666666666666664, 57.666666666666664, 57.666666666666664, 57.666666666666664, 57.666666666666664, 50.333333333333336, 50.333333333333336, 43.333333333333336, 43.333333333333336, 50.333333333333336, 50.333333333333336, 57.666666666666664, 57.666666666666664, 57.666666666666664, 50.333333333333336, 50.333333333333336, 43.333333333333336, 43.333333333333336, 43.333333333333336, 43.333333333333336, 43.333333333333336, 50.666666666666664, 50.666666666666664, 58.0, 58.0, 58.0, 65.0, 65.0, 72.33333333333333, 72.33333333333333, 72.33333333333333, 72.0, 72.33333333333333, 72.33333333333333, 72.33333333333333, 72.33333333333333, 79.33333333333333, 72.0, 79.33333333333333, 72.33333333333333, 72.33333333333333, 72.33333333333333, 72.33333333333333, 72.33333333333333, 72.33333333333333, 72.33333333333333, 72.33333333333333, 72.33333333333333, 79.33333333333333, 79.33333333333333, 79.33333333333333, 79.33333333333333, 72.33333333333333, 65.0, 65.0, 57.666666666666664, 57.666666666666664, 57.666666666666664, 57.666666666666664, 57.666666666666664, 57.666666666666664, 57.666666666666664, 57.666666666666664, 57.666666666666664, 57.666666666666664, 57.666666666666664, 57.666666666666664, 50.333333333333336, 50.333333333333336, 43.333333333333336, 43.333333333333336, 43.333333333333336, 43.333333333333336, 43.333333333333336, 43.333333333333336, 43.333333333333336, 43.333333333333336, 43.333333333333336, 43.333333333333336, 50.333333333333336, 50.333333333333336, 57.666666666666664, 57.666666666666664, 57.666666666666664, 57.666666666666664, 57.666666666666664, 50.333333333333336, 50.333333333333336, 50.333333333333336]"
512,4,"[511.0, 511.0, 511.0, 511.0, 511.0, 511.0, 511.0, 511.0, 511.0, 511.0, 511.0, 511.0, 511.0, 511.0, 511.0, 511.0, 511.0, 511.0, 511.0, 511.0, 511.0, 511.0, 511.0, 511.0, 511.0, 511.0, 511.0, 511.0, 511.0, 511.0, 511.0, 511.0, 511.0, 511.0, 511.0, 511.0, 511.0, 511.0, 511.0, 511.0, 511.0, 511.0, 511.0, 511.0, 511.0, 511.0, 511.0, 511.0, 511.0, 511.0, 511.0, 511.0, 511.0, 511.0, 511.0, 511.0, 511.0, 511.0, 511.0, 511.0, 511.0, 511.0, 511.0, 511.0, 511.0, 511.0, 511.0, 511.0, 511.0, 511.0, 511.0, 511.0, 511.0, 511.0, 511.0, 511.0, 511.0, 511.0, 511.0, 511.0, 511.0, 511.0, 511.0, 511.0, 511.0, 511.0, 511.0, 511.0, 511.0, 511.0, 511.0, 511.0, 511.0, 511.0, 511.0, 511.0, 511.0, 511.0, 511.0, 511.0, 511.0, 511.0, 511.0, 511.0, 511.0, 511.0, 511.0, 511.0, 511.0, 511.0, 511.0, 511.0, 511.0, 511.0, 511.0, 511.0, 511.0, 511.0, 511.0, 511.0, 511.0, 511.0, 511.0, 511.0, 511.0, 511.0, 511.0, 511.0, 511.0, 511.0, 511.0, 511.0, 511.0, 511.0, 511.0, 511.0, 511.0, 511.0, 511.0, 511.0, 511.0, 511.0, 511.0, 511.0, 511.0, 511.0, 511.0, 511.0, 511.0, 511.0, 511.0, 511.0, 511.0, 511.0, 511.0, 511.0, 511.0, 511.0, 511.0, 511.0, 511.0, 511.0, 511.0, 511.0, 511.0, 511.0, 511.0, 511.0, 511.0, 511.0, 511.0, 511.0, 511.0, 511.0, 511.0, 511.0, 511.0, 511.0, 511.0, 511.0, 511.0, 511.0, 511.0, 511.0, 511.0, 511.0, 511.0, 511.0, 511.0, 511.0, 511.0, 511.0, 511.0, 511.0, 511.0, 511.0, 511.0, 511.0, 511.0, 511.0, 511.0, 511.0, 511.0, 511.0, 511.0, 511.0, 511.0, 511.0, 511.0, 511.0, 511.0, 511.0, 511.0, 511.0, 511.0, 511.0, 511.0, 511.0, 511.0, 511.0, 511.0, 511.0, 511.0, 511.0, 511.0, 511.0, 511.0, 511.0, 511.0, 511.0, 511.0, 511.0, 511.0, 511.0, 511.0, 511.0, 511.0, 511.0, 511.0, 511.0, 511.0, 511.0, 511.0, 511.0, 511.0, 511.0, 511.0, 511.0, 511.0, 511.0, 511.0, 511.0, 511.0, 511.0, 511.0, 511.0, 511.0, 511.0, 511.0, 511.0, 511.0, 511.0, 511.0, 511.0, 511.0, 511.0, 511.0, 511.0, 511.0, 511.0, 511.0, 511.0, 511.0, 511.0, 511.0, 511.0, 511.0, 511.0, 511.0, 511.0]","[0.0, 0.0, 0.0, 0.0, 0.0, 0.0, 0.0, 0.0, 0.0, 0.0, 0.0, 0.0, 0.0, 0.0, 0.0, 0.0, 0.0, 0.0, 0.0, 0.0, 0.0, 0.0, 0.0, 0.0, 0.0, 0.0, 0.0, 0.0, 0.0, 0.0, 0.0, 0.0, 0.0, 0.0, 0.0, 0.0, 0.0, 0.0, 0.0, 0.0, 0.0, 0.0, 0.0, 0.0, 0.0, 0.0, 0.0, 0.0, 0.0, 0.0, 0.0, 0.0, 0.0, 0.0, 0.0, 0.0, 0.0, 0.0, 0.0, 0.0, 0.0, 7.0, 7.0, 14.333333333333334, 14.333333333333334, 14.333333333333334, 14.333333333333334, 14.333333333333334, 14.333333333333334, 14.333333333333334, 14.333333333333334, 14.333333333333334, 14.333333333333334, 14.333333333333334, 14.333333333333334, 14.333333333333334, 14.333333333333334, 14.333333333333334, 14.333333333333334, 14.333333333333334, 14.333333333333334, 14.333333333333334, 14.333333333333334, 14.333333333333334, 7.0, 7.0, 7.0, 7.0, 7.0, 14.333333333333334, 14.333333333333334, 14.333333333333334, 7.0, 0.0, 0.0, 0.0, 0.0, 0.0, 0.0, 0.0, 0.0, 0.0, 0.0, 7.0, 7.0, 14.333333333333334, 14.333333333333334, 14.333333333333334, 14.333333333333334, 21.333333333333332, 21.333333333333332, 28.666666666666668, 28.666666666666668, 28.666666666666668, 28.666666666666668, 28.666666666666668, 28.666666666666668, 28.666666666666668, 28.666666666666668, 28.666666666666668, 28.666666666666668, 28.666666666666668, 28.666666666666668, 28.666666666666668, 28.666666666666668, 28.666666666666668, 28.666666666666668, 28.666666666666668, 28.666666666666668, 28.666666666666668, 28.666666666666668, 28.666666666666668, 28.666666666666668, 28.666666666666668, 21.333333333333332, 21.333333333333332, 21.333333333333332, 21.333333333333332, 21.333333333333332, 28.666666666666668, 28.666666666666668, 28.666666666666668, 28.666666666666668, 28.666666666666668, 28.666666666666668, 36.0, 36.0, 36.0, 28.666666666666668, 28.666666666666668, 29.0, 29.0, 29.0, 36.0, 36.0, 43.333333333333336, 43.333333333333336, 43.333333333333336, 36.0, 28.666666666666668, 14.333333333333334, 14.333333333333334, 14.333333333333334, 14.333333333333334, 14.333333333333334, 21.333333333333332, 28.333333333333332, 28.333333333333332, 35.666666666666664, 43.0, 50.333333333333336, 57.666666666666664, 57.666666666666664, 43.0, 36.0, 28.666666666666668, 28.666666666666668, 28.666666666666668, 36.0, 43.0, 50.333333333333336, 57.666666666666664, 57.666666666666664, 57.666666666666664, 57.666666666666664, 57.666666666666664, 57.666666666666664, 57.666666666666664, 57.666666666666664, 57.666666666666664, 57.666666666666664, 57.666666666666664, 57.666666666666664, 57.666666666666664, 57.666666666666664, 57.666666666666664, 57.666666666666664, 57.666666666666664, 57.666666666666664, 57.666666666666664, 57.666666666666664, 57.666666666666664, 57.666666666666664, 57.666666666666664, 57.666666666666664, 50.333333333333336, 50.333333333333336, 43.0, 43.0, 43.0, 43.0, 43.0, 43.0, 43.0, 43.0, 43.0, 43.0, 43.0, 43.0, 43.0, 43.0, 43.0, 43.0, 43.0, 43.0, 43.0, 43.0, 43.0, 43.0, 50.333333333333336, 50.333333333333336, 50.333333333333336, 50.333333333333336, 50.333333333333336, 57.666666666666664, 57.666666666666664, 65.0, 57.666666666666664, 57.666666666666664, 57.666666666666664, 57.666666666666664, 57.666666666666664, 57.666666666666664, 57.666666666666664, 57.666666666666664, 57.666666666666664, 57.666666666666664, 57.666666666666664, 57.666666666666664, 57.666666666666664, 57.666666666666664, 57.666666666666664, 57.666666666666664, 57.666666666666664, 57.666666666666664, 57.666666666666664, 50.333333333333336, 57.666666666666664, 50.333333333333336, 57.666666666666664, 57.666666666666664, 57.666666666666664, 57.666666666666664, 57.666666666666664, 57.666666666666664, 57.666666666666664, 57.666666666666664, 57.666666666666664, 57.666666666666664, 50.333333333333336, 50.333333333333336, 50.333333333333336, 43.333333333333336, 43.333333333333336, 43.333333333333336, 50.333333333333336, 50.333333333333336, 50.333333333333336, 57.666666666666664, 14.333333333333334]"
577,1,"[511.0, 511.0, 511.0, 511.0, 511.0, 511.0, 511.0, 511.0, 511.0, 511.0, 511.0, 511.0, 511.0, 511.0, 511.0, 511.0, 511.0, 511.0, 511.0, 511.0, 511.0, 511.0, 511.0, 511.0, 511.0, 511.0, 511.0, 511.0, 511.0, 511.0, 511.0, 511.0, 511.0, 511.0, 511.0, 511.0, 511.0, 511.0, 511.0, 511.0, 511.0, 511.0, 511.0, 511.0, 511.0, 511.0, 511.0, 511.0, 511.0, 511.0, 511.0, 511.0, 511.0, 511.0, 511.0, 511.0, 511.0, 511.0, 511.0, 511.0, 511.0, 511.0, 511.0, 511.0, 511.0, 511.0, 511.0, 511.0, 511.0, 511.0, 511.0, 511.0, 511.0, 511.0, 511.0, 511.0, 511.0, 511.0, 511.0, 511.0, 511.0, 511.0, 511.0, 511.0, 511.0, 511.0, 511.0, 511.0, 511.0, 511.0, 511.0, 511.0, 511.0, 511.0, 511.0, 511.0, 511.0, 511.0, 511.0, 511.0, 511.0, 511.0, 511.0, 511.0, 511.0, 511.0, 511.0, 511.0, 511.0, 511.0, 511.0, 511.0, 511.0, 511.0, 511.0, 511.0, 511.0, 511.0, 511.0, 511.0, 511.0, 511.0, 511.0, 511.0, 511.0, 511.0, 511.0, 511.0, 511.0, 511.0, 511.0, 511.0, 511.0, 511.0, 511.0, 511.0, 511.0, 511.0, 511.0, 511.0, 511.0, 511.0, 511.0, 511.0, 511.0, 511.0, 511.0, 511.0, 511.0, 511.0, 511.0, 511.0, 511.0, 511.0, 511.0, 511.0, 511.0, 511.0, 511.0, 511.0, 511.0, 511.0, 511.0, 511.0, 511.0, 511.0, 511.0, 511.0, 511.0, 511.0, 511.0, 511.0, 511.0, 511.0, 511.0, 511.0, 511.0, 511.0, 511.0, 511.0, 511.0, 511.0, 511.0, 511.0, 511.0, 511.0, 511.0, 511.0, 511.0, 511.0, 511.0, 511.0, 511.0, 511.0, 511.0, 511.0, 511.0, 511.0, 511.0, 511.0, 511.0, 511.0, 511.0, 511.0, 511.0, 511.0, 511.0, 511.0, 511.0, 511.0, 511.0, 511.0, 511.0, 511.0, 511.0, 511.0, 511.0, 511.0, 511.0, 511.0, 511.0, 511.0, 511.0, 511.0, 511.0, 511.0, 511.0, 511.0, 511.0, 511.0, 511.0, 511.0, 511.0, 511.0, 511.0, 511.0, 511.0, 511.0, 511.0, 511.0, 511.0, 511.0, 511.0, 511.0, 511.0, 511.0, 511.0, 511.0, 511.0, 511.0, 511.0, 511.0, 511.0, 511.0, 511.0, 511.0, 511.0, 511.0, 511.0, 511.0, 511.0, 511.0, 511.0, 511.0, 511.0, 511.0, 511.0, 511.0, 511.0, 511.0, 511.0, 511.0, 511.0, 511.0, 511.0, 511.0, 511.0]","[0.0, 0.0, 0.0, 0.0, 0.0, 0.0, 0.0, 0.0, 0.0, 0.0, 0.0, 0.0, 0.0, 0.0, 0.0, 0.0, 0.0, 0.0, 0.0, 0.0, 0.0, 0.0, 0.0, 0.0, 0.0, 0.0, 0.0, 0.0, 0.0, 0.0, 0.0, 0.0, 0.0, 0.0, 0.0, 0.0, 0.0, 0.0, 0.0, 0.0, 0.0, 0.0, 0.0, 0.0, 0.0, 0.0, 0.0, 0.0, 0.0, 0.0, 0.0, 0.0, 0.0, 0.0, 0.0, 0.0, 0.0, 0.0, 0.0, 0.0, 0.0, 0.0, 0.0, 0.0, 0.0, 0.0, 0.0, 0.0, 0.0, 0.0, 0.0, 0.0, 0.0, 0.0, 0.0, 0.0, 0.0, 0.0, 0.0, 0.0, 0.0, 0.0, 0.0, 0.0, 0.0, 0.0, 0.0, 0.0, 0.0, 0.0, 0.0, 0.0, 0.0, 0.0, 0.0, 0.0, 0.0, 0.0, 0.0, 0.0, 0.0, 0.0, 0.0, 0.0, 8.666666666666666, 8.666666666666666, 17.666666666666668, 17.666666666666668, 17.666666666666668, 17.666666666666668, 17.666666666666668, 17.666666666666668, 17.666666666666668, 17.666666666666668, 17.666666666666668, 17.666666666666668, 17.666666666666668, 17.666666666666668, 17.666666666666668, 17.666666666666668, 17.666666666666668, 17.666666666666668, 17.666666666666668, 17.666666666666668, 17.666666666666668, 17.666666666666668, 17.666666666666668, 17.666666666666668, 17.666666666666668, 17.666666666666668, 8.666666666666666, 8.666666666666666, 0.0, 0.0, 0.0, 0.0, 0.0, 0.0, 0.0, 0.0, 0.0, 0.0, 0.0, 0.0, 0.0, 0.0, 0.0, 0.0, 0.0, 0.0, 0.0, 0.0, 0.0, 0.0, 0.0, 0.0, 0.0, 0.0, 0.0, 0.0, 0.0, 0.0, 0.0, 0.0, 0.0, 0.0, 0.0, 0.0, 0.0, 0.0, 0.0, 0.0, 0.0, 0.0, 0.0, 0.0, 0.0, 0.0, 0.0, 0.0, 0.0, 0.0, 0.0, 0.0, 0.0, 0.0, 0.0, 0.0, 0.0, 0.0, 0.0, 0.0, 0.0, 0.0, 0.0, 0.0, 0.0, 0.0, 0.0, 0.0, 0.0, 0.0, 0.0, 0.0, 0.0, 0.0, 0.0, 0.0, 0.0, 0.0, 0.0, 0.0, 0.0, 0.0, 0.0, 0.0, 0.0, 0.0, 0.0, 0.0, 0.0, 0.0, 0.0, 0.0, 0.0, 0.0, 0.0, 0.0, 0.0, 0.0, 0.0, 0.0, 0.0, 0.0, 0.0, 0.0, 0.0, 0.0, 0.0, 0.0, 0.0, 0.0, 8.666666666666666, 8.666666666666666, 17.666666666666668, 8.666666666666666, 8.666666666666666, 0.0, 0.0, 8.666666666666666, 8.666666666666666, 8.666666666666666, 8.666666666666666, 0.0, 0.0, 0.0, 0.0, 8.666666666666666, 8.666666666666666, 8.666666666666666, 8.666666666666666, 8.666666666666666, 17.666666666666668, 17.666666666666668, 17.666666666666668, 17.666666666666668, 17.666666666666668, 17.666666666666668, 17.666666666666668, 17.666666666666668, 17.666666666666668, 17.666666666666668, 17.666666666666668, 17.666666666666668, 17.666666666666668, 17.666666666666668, 0.0]"
577,2,"[511.0, 511.0, 511.0, 511.0, 511.0, 511.0, 511.0, 511.0, 511.0, 511.0, 511.0, 511.0, 511.0, 511.0, 511.0, 511.0, 511.0, 511.0, 511.0, 511.0, 511.0, 511.0, 511.0, 511.0, 511.0, 511.0, 511.0, 511.0, 511.0, 511.0, 511.0, 511.0, 511.0, 511.0, 511.0, 511.0, 511.0, 553.6666666666666, 468.3333333333333, 511.0, 511.0, 511.0, 511.0, 511.0, 511.0, 511.0, 511.0, 511.0, 511.0, 511.0, 511.0, 511.0, 511.0, 511.0, 511.0, 511.0, 511.0, 511.0, 511.0, 511.0, 511.0, 511.0, 511.0, 511.0, 511.0, 511.0, 511.0, 511.0, 511.0, 511.0, 511.0, 511.0, 511.0, 511.0, 511.0, 596.3333333333334, 511.0, 553.6666666666666, 553.6666666666666, 596.3333333333334, 511.0, 553.6666666666666, 511.0, 511.0, 511.0, 511.0, 511.0, 511.0, 511.0, 511.0, 511.0, 511.0, 511.0, 425.6666666666667, 511.0, 511.0, 511.0, 511.0, 511.0, 511.0, 511.0, 468.3333333333333, 468.3333333333333, 511.0, 511.0, 511.0, 553.6666666666666, 553.6666666666666, 511.0, 511.0, 553.6666666666666, 468.3333333333333, 511.0, 511.0, 511.0, 511.0, 511.0, 511.0, 553.6666666666666, 511.0, 511.0, 511.0, 553.6666666666666, 511.0, 511.0, 511.0, 511.0, 511.0, 553.6666666666666, 511.0, 511.0, 468.3333333333333, 468.3333333333333, 511.0, 511.0, 511.0, 511.0, 511.0, 425.6666666666667, 468.3333333333333, 511.0, 511.0, 511.0, 511.0, 468.3333333333333, 468.3333333333333, 553.6666666666666, 511.0, 511.0, 511.0, 468.3333333333333, 468.3333333333333, 468.3333333333333, 511.0, 511.0, 553.6666666666666, 511.0, 511.0, 511.0, 553.6666666666666, 511.0, 553.6666666666666, 511.0, 511.0, 511.0, 468.3333333333333, 511.0, 553.6666666666666, 511.0, 511.0, 511.0, 511.0, 511.0, 511.0, 511.0, 511.0, 511.0, 511.0, 511.0, 511.0, 511.0, 511.0, 511.0, 468.3333333333333, 553.6666666666666, 553.6666666666666, 511.0, 511.0, 553.6666666666666, 553.6666666666666, 553.6666666666666, 511.0, 511.0, 511.0, 511.0, 511.0, 511.0, 511.0, 468.3333333333333, 511.0, 511.0, 511.0, 425.6666666666667, 511.0, 596.3333333333334, 468.3333333333333, 511.0, 511.0, 468.3333333333333, 511.0, 511.0, 553.6666666666666, 511.0, 511.0, 511.0, 511.0, 511.0, 511.0, 511.0, 511.0, 468.3333333333333, 468.3333333333333, 468.3333333333333, 511.0, 511.0, 511.0, 511.0, 511.0, 511.0, 511.0, 511.0, 511.0, 511.0, 511.0, 511.0, 511.0, 511.0, 511.0, 511.0, 511.0, 511.0, 511.0, 511.0, 553.6666666666666, 511.0, 511.0, 553.6666666666666, 511.0, 511.0, 511.0, 468.3333333333333, 511.0, 511.0, 553.6666666666666, 511.0, 511.0, 511.0, 511.0, 511.0, 511.0, 511.0, 511.0, 511.0, 511.0, 511.0, 468.3333333333333, 511.0, 511.0, 511.0, 511.0, 511.0, 511.0, 553.6666666666666, 511.0, 511.0, 553.6666666666666, 511.0]","[62.333333333333336, 44.333333333333336, 44.333333333333336, 35.666666666666664, 35.666666666666664, 35.666666666666664, 35.666666666666664, 35.666666666666664, 26.666666666666668, 26.666666666666668, 17.666666666666668, 17.666666666666668, 17.666666666666668, 17.666666666666668, 17.666666666666668, 17.666666666666668, 17.666666666666668, 17.666666666666668, 26.333333333333332, 26.333333333333332, 26.333333333333332, 44.333333333333336, 44.333333333333336, 53.333333333333336, 53.333333333333336, 53.333333333333336, 53.333333333333336, 53.333333333333336, 53.333333333333336, 53.333333333333336, 62.333333333333336, 62.333333333333336, 71.33333333333333, 71.33333333333333, 71.33333333333333, 80.33333333333333, 80.33333333333333, 89.33333333333333, 98.33333333333333, 98.33333333333333, 107.33333333333333, 107.33333333333333, 107.33333333333333, 116.33333333333333, 116.33333333333333, 125.33333333333333, 125.33333333333333, 125.33333333333333, 125.33333333333333, 125.33333333333333, 125.33333333333333, 125.33333333333333, 125.33333333333333, 125.33333333333333, 125.33333333333333, 125.33333333333333, 125.33333333333333, 125.33333333333333, 116.33333333333333, 116.33333333333333, 107.33333333333333, 98.33333333333333, 98.33333333333333, 89.33333333333333, 89.33333333333333, 89.33333333333333, 89.33333333333333, 80.33333333333333, 89.33333333333333, 89.33333333333333, 89.33333333333333, 89.33333333333333, 89.33333333333333, 89.33333333333333, 98.33333333333333, 89.33333333333333, 107.33333333333333, 107.33333333333333, 125.33333333333333, 143.33333333333334, 161.0, 170.0, 188.0, 188.0, 197.0, 197.0, 197.0, 197.0, 205.66666666666666, 214.66666666666666, 223.66666666666666, 241.66666666666666, 250.66666666666666, 259.6666666666667, 268.6666666666667, 277.6666666666667, 286.6666666666667, 295.6666666666667, 304.6666666666667, 313.6666666666667, 304.6666666666667, 295.6666666666667, 286.6666666666667, 286.6666666666667, 286.6666666666667, 295.6666666666667, 295.6666666666667, 304.6666666666667, 304.6666666666667, 304.6666666666667, 313.6666666666667, 313.6666666666667, 313.6666666666667, 304.6666666666667, 295.6666666666667, 277.6666666666667, 268.6666666666667, 268.6666666666667, 259.6666666666667, 259.6666666666667, 259.6666666666667, 277.6666666666667, 286.6666666666667, 277.6666666666667, 277.6666666666667, 277.6666666666667, 268.6666666666667, 268.6666666666667, 268.6666666666667, 277.6666666666667, 286.6666666666667, 286.6666666666667, 286.6666666666667, 277.6666666666667, 286.6666666666667, 295.6666666666667, 304.6666666666667, 322.6666666666667, 331.6666666666667, 340.3333333333333, 340.3333333333333, 358.3333333333333, 367.3333333333333, 367.3333333333333, 376.3333333333333, 376.3333333333333, 376.3333333333333, 376.3333333333333, 376.3333333333333, 385.3333333333333, 394.3333333333333, 403.3333333333333, 403.3333333333333, 412.3333333333333, 403.3333333333333, 394.3333333333333, 385.3333333333333, 394.3333333333333, 394.3333333333333, 394.3333333333333, 394.3333333333333, 394.3333333333333, 394.3333333333333, 394.3333333333333, 394.3333333333333, 394.3333333333333, 385.3333333333333, 385.3333333333333, 376.3333333333333, 376.3333333333333, 367.3333333333333, 367.3333333333333, 358.3333333333333, 349.3333333333333, 349.3333333333333, 358.3333333333333, 349.3333333333333, 358.3333333333333, 349.3333333333333, 349.3333333333333, 340.3333333333333, 340.3333333333333, 331.3333333333333, 340.3333333333333, 340.3333333333333, 340.3333333333333, 340.3333333333333, 349.3333333333333, 358.3333333333333, 358.3333333333333, 358.3333333333333, 349.3333333333333, 349.3333333333333, 340.6666666666667, 340.6666666666667, 340.6666666666667, 340.6666666666667, 340.6666666666667, 340.6666666666667, 340.6666666666667, 349.6666666666667, 349.6666666666667, 349.6666666666667, 349.6666666666667, 349.6666666666667, 349.3333333333333, 358.3333333333333, 358.3333333333333, 358.3333333333333, 349.3333333333333, 340.3333333333333, 340.3333333333333, 331.3333333333333, 340.3333333333333, 331.3333333333333, 331.3333333333333, 331.3333333333333, 331.3333333333333, 331.3333333333333, 340.3333333333333, 331.3333333333333, 331.3333333333333, 322.3333333333333, 313.3333333333333, 304.6666666666667, 304.6666666666667, 304.6666666666667, 295.6666666666667, 295.6666666666667, 295.6666666666667, 295.6666666666667, 295.6666666666667, 295.6666666666667, 286.6666666666667, 286.6666666666667, 286.6666666666667, 286.6666666666667, 277.6666666666667, 277.6666666666667, 269.0, 269.0, 269.0, 260.0, 269.0, 269.0, 269.0, 260.0, 269.0, 278.0, 278.0, 278.0, 278.0, 278.0, 269.0, 269.0, 269.0, 269.0, 269.0, 277.6666666666667, 277.6666666666667, 295.6666666666667, 295.6666666666667, 304.6666666666667, 304.6666666666667, 313.6666666666667, 304.6666666666667, 313.6666666666667, 286.6666666666667, 286.6666666666667, 277.6666666666667, 277.6666666666667, 277.6666666666667, 268.6666666666667, 259.6666666666667, 250.66666666666666, 268.6666666666667, 232.66666666666666]"
577,3,"[511.0, 511.0, 511.0, 511.0, 511.0, 511.0, 511.0, 511.0, 511.0, 511.0, 511.0, 511.0, 511.0, 511.0, 511.0, 511.0, 511.0, 511.0, 511.0, 511.0, 511.0, 511.0, 511.0, 511.0, 511.0, 511.0, 511.0, 511.0, 511.0, 511.0, 511.0, 511.0, 511.0, 511.0, 511.0, 511.0, 511.0, 511.0, 511.0, 511.0, 511.0, 511.0, 511.0, 511.0, 511.0, 511.0, 511.0, 511.0, 511.0, 511.0, 511.0, 511.0, 511.0, 511.0, 511.0, 511.0, 511.0, 511.0, 511.0, 511.0, 511.0, 511.0, 511.0, 511.0, 511.0, 511.0, 511.0, 511.0, 511.0, 511.0, 511.0, 511.0, 511.0, 511.0, 511.0, 511.0, 511.0, 511.0, 511.0, 511.0, 511.0, 511.0, 511.0, 511.0, 511.0, 511.0, 511.0, 511.0, 511.0, 511.0, 511.0, 511.0, 511.0, 511.0, 511.0, 511.0, 511.0, 511.0, 511.0, 511.0, 511.0, 511.0, 511.0, 511.0, 511.0, 511.0, 511.0, 511.0, 511.0, 511.0, 511.0, 511.0, 511.0, 511.0, 511.0, 511.0, 511.0, 511.0, 511.0, 511.0, 511.0, 511.0, 511.0, 511.0, 511.0, 511.0, 511.0, 511.0, 511.0, 511.0, 511.0, 511.0, 511.0, 511.0, 511.0, 511.0, 511.0, 511.0, 511.0, 511.0, 511.0, 511.0, 511.0, 511.0, 511.0, 511.0, 511.0, 511.0, 511.0, 511.0, 511.0, 511.0, 511.0, 511.0, 511.0, 511.0, 511.0, 511.0, 511.0, 511.0, 511.0, 511.0, 511.0, 511.0, 511.0, 511.0, 511.0, 511.0, 511.0, 511.0, 511.0, 511.0, 511.0, 511.0, 511.0, 511.0, 511.0, 511.0, 511.0, 511.0, 511.0, 511.0, 511.0, 511.0, 511.0, 511.0, 511.0, 511.0, 511.0, 511.0, 511.0, 511.0, 511.0, 511.0, 511.0, 511.0, 511.0, 511.0, 511.0, 511.0, 511.0, 511.0, 511.0, 511.0, 511.0, 511.0, 511.0, 511.0, 511.0, 511.0, 511.0, 511.0, 511.0, 511.0, 511.0, 511.0, 511.0, 511.0, 511.0, 511.0, 511.0, 511.0, 511.0, 511.0, 511.0, 511.0, 511.0, 511.0, 511.0, 511.0, 511.0, 511.0, 511.0, 511.0, 511.0, 511.0, 511.0, 511.0, 511.0, 511.0, 511.0, 511.0, 511.0, 511.0, 511.0, 511.0, 511.0, 511.0, 511.0, 511.0, 511.0, 511.0, 511.0, 511.0, 511.0, 511.0, 511.0, 511.0, 511.0, 511.0, 511.0, 511.0, 511.0, 511.0, 511.0, 511.0, 511.0, 511.0, 511.0, 511.0, 511.0, 511.0, 511.0, 511.0, 511.0, 511.0, 511.0, 511.0, 511.0]","[17.666666666666668, 17.666666666666668, 17.666666666666668, 17.666666666666668, 17.666666666666668, 17.666666666666668, 17.666666666666668, 17.666666666666668, 17.666666666666668, 26.666666666666668, 26.666666666666668, 17.666666666666668, 26.333333333333332, 26.333333333333332, 35.333333333333336, 26.333333333333332, 26.333333333333332, 17.666666666666668, 17.666666666666668, 17.666666666666668, 17.666666666666668, 17.666666666666668, 17.666666666666668, 17.666666666666668, 17.666666666666668, 26.333333333333332, 35.333333333333336, 26.333333333333332, 17.666666666666668, 17.666666666666668, 17.666666666666668, 17.666666666666668, 17.666666666666668, 17.666666666666668, 17.666666666666668, 17.666666666666668, 17.666666666666668, 17.666666666666668, 17.666666666666668, 17.666666666666668, 17.666666666666668, 17.666666666666668, 17.666666666666668, 17.666666666666668, 17.666666666666668, 17.666666666666668, 26.333333333333332, 26.333333333333332, 35.333333333333336, 35.333333333333336, 35.333333333333336, 35.333333333333336, 35.333333333333336, 35.333333333333336, 35.333333333333336, 35.333333333333336, 35.333333333333336, 35.333333333333336, 35.333333333333336, 44.333333333333336, 44.333333333333336, 62.333333333333336, 62.333333333333336, 62.333333333333336, 62.333333333333336, 62.333333333333336, 71.33333333333333, 71.33333333333333, 71.33333333333333, 80.33333333333333, 80.33333333333333, 89.33333333333333, 89.33333333333333, 98.33333333333333, 98.33333333333333, 107.33333333333333, 107.33333333333333, 107.33333333333333, 107.33333333333333, 107.33333333333333, 107.33333333333333, 107.33333333333333, 98.33333333333333, 98.33333333333333, 89.33333333333333, 89.33333333333333, 89.33333333333333, 89.33333333333333, 80.33333333333333, 80.33333333333333, 71.33333333333333, 71.33333333333333, 71.33333333333333, 71.33333333333333, 62.333333333333336, 62.333333333333336, 53.333333333333336, 53.333333333333336, 53.333333333333336, 53.333333333333336, 53.333333333333336, 53.333333333333336, 53.333333333333336, 44.333333333333336, 44.333333333333336, 35.333333333333336, 35.333333333333336, 35.333333333333336, 35.333333333333336, 35.333333333333336, 44.333333333333336, 44.333333333333336, 53.333333333333336, 53.333333333333336, 53.333333333333336, 53.333333333333336, 53.333333333333336, 53.333333333333336, 53.333333333333336, 53.333333333333336, 53.333333333333336, 53.333333333333336, 53.333333333333336, 44.333333333333336, 44.333333333333336, 35.333333333333336, 35.333333333333336, 35.333333333333336, 35.333333333333336, 35.333333333333336, 35.333333333333336, 35.333333333333336, 35.333333333333336, 26.333333333333332, 26.333333333333332, 17.666666666666668, 17.666666666666668, 17.666666666666668, 17.666666666666668, 17.666666666666668, 17.666666666666668, 17.666666666666668, 17.666666666666668, 8.666666666666666, 8.666666666666666, 0.0, 0.0, 0.0, 0.0, 0.0, 8.666666666666666, 8.666666666666666, 0.0, 0.0, 0.0, 0.0, 0.0, 0.0, 0.0, 0.0, 0.0, 0.0, 0.0, 0.0, 0.0, 0.0, 0.0, 0.0, 0.0, 0.0, 0.0, 0.0, 0.0, 0.0, 0.0, 0.0, 0.0, 0.0, 8.666666666666666, 8.666666666666666, 17.666666666666668, 17.666666666666668, 17.666666666666668, 17.666666666666668, 17.666666666666668, 17.666666666666668, 17.666666666666668, 17.666666666666668, 17.666666666666668, 17.666666666666668, 17.666666666666668, 17.666666666666668, 17.666666666666668, 17.666666666666668, 17.666666666666668, 26.666666666666668, 26.666666666666668, 35.666666666666664, 35.666666666666664, 35.666666666666664, 35.666666666666664, 35.666666666666664, 35.666666666666664, 35.666666666666664, 35.666666666666664, 35.666666666666664, 35.666666666666664, 35.666666666666664, 35.666666666666664, 35.666666666666664, 35.666666666666664, 35.666666666666664, 35.666666666666664, 35.666666666666664, 35.666666666666664, 35.666666666666664, 26.666666666666668, 26.666666666666668, 17.666666666666668, 17.666666666666668, 17.666666666666668, 17.666666666666668, 17.666666666666668, 17.666666666666668, 17.666666666666668, 17.666666666666668, 17.666666666666668, 26.333333333333332, 26.333333333333332, 35.333333333333336, 35.333333333333336, 35.333333333333336, 35.333333333333336, 35.333333333333336, 35.333333333333336, 35.333333333333336, 35.333333333333336, 35.333333333333336, 35.333333333333336, 35.333333333333336, 35.333333333333336, 35.333333333333336, 35.333333333333336, 35.333333333333336, 35.333333333333336, 35.333333333333336, 35.333333333333336, 35.333333333333336, 35.333333333333336, 35.333333333333336, 35.333333333333336, 35.333333333333336, 35.333333333333336, 35.333333333333336, 35.333333333333336, 35.333333333333336, 35.333333333333336, 35.333333333333336, 35.333333333333336, 35.333333333333336, 35.333333333333336, 35.333333333333336, 35.333333333333336, 26.333333333333332, 26.333333333333332, 17.666666666666668, 26.666666666666668, 44.333333333333336, 44.333333333333336, 53.333333333333336, 53.333333333333336, 44.333333333333336, 44.333333333333336, 35.666666666666664, 35.666666666666664, 35.666666666666664, 35.666666666666664, 35.666666666666664, 53.333333333333336]"
577,4,"[511.0, 511.0, 511.0, 511.0, 511.0, 511.0, 511.0, 511.0, 511.0, 511.0, 511.0, 511.0, 511.0, 511.0, 511.0, 511.0, 511.0, 511.0, 511.0, 511.0, 511.0, 511.0, 511.0, 511.0, 511.0, 511.0, 511.0, 511.0, 511.0, 511.0, 511.0, 511.0, 511.0, 511.0, 511.0, 511.0, 511.0, 511.0, 511.0, 511.0, 511.0, 511.0, 511.0, 511.0, 511.0, 511.0, 511.0, 511.0, 511.0, 511.0, 511.0, 511.0, 511.0, 511.0, 511.0, 511.0, 511.0, 511.0, 511.0, 511.0, 511.0, 511.0, 511.0, 511.0, 511.0, 511.0, 511.0, 511.0, 511.0, 511.0, 511.0, 511.0, 511.0, 511.0, 511.0, 511.0, 511.0, 511.0, 511.0, 511.0, 511.0, 511.0, 511.0, 511.0, 511.0, 511.0, 511.0, 511.0, 511.0, 511.0, 511.0, 511.0, 511.0, 511.0, 511.0, 511.0, 511.0, 511.0, 511.0, 511.0, 511.0, 511.0, 511.0, 511.0, 511.0, 511.0, 511.0, 553.6666666666666, 553.6666666666666, 553.6666666666666, 511.0, 511.0, 511.0, 511.0, 425.6666666666667, 553.6666666666666, 553.6666666666666, 511.0, 511.0, 553.6666666666666, 511.0, 511.0, 511.0, 511.0, 511.0, 511.0, 511.0, 511.0, 511.0, 511.0, 511.0, 511.0, 511.0, 511.0, 511.0, 511.0, 511.0, 553.6666666666666, 511.0, 511.0, 553.6666666666666, 511.0, 511.0, 511.0, 511.0, 511.0, 511.0, 511.0, 511.0, 511.0, 511.0, 511.0, 511.0, 511.0, 511.0, 511.0, 511.0, 511.0, 511.0, 511.0, 511.0, 511.0, 511.0, 511.0, 511.0, 511.0, 511.0, 511.0, 511.0, 511.0, 511.0, 511.0, 511.0, 511.0, 511.0, 511.0, 511.0, 511.0, 511.0, 511.0, 511.0, 511.0, 511.0, 511.0, 511.0, 511.0, 511.0, 511.0, 511.0, 511.0, 511.0, 511.0, 511.0, 511.0, 511.0, 511.0, 511.0, 511.0, 511.0, 511.0, 511.0, 511.0, 511.0, 511.0, 511.0, 511.0, 511.0, 511.0, 511.0, 511.0, 511.0, 511.0, 511.0, 511.0, 511.0, 511.0, 511.0, 511.0, 511.0, 511.0, 511.0, 511.0, 511.0, 511.0, 511.0, 511.0, 511.0, 511.0, 511.0, 511.0, 511.0, 511.0, 511.0, 511.0, 511.0, 511.0, 511.0, 511.0, 511.0, 511.0, 511.0, 511.0, 511.0, 511.0, 511.0, 511.0, 511.0, 511.0, 511.0, 511.0, 553.6666666666666, 553.6666666666666, 553.6666666666666, 511.0, 511.0, 511.0, 468.3333333333333, 553.6666666666666, 511.0, 511.0, 468.3333333333333, 468.3333333333333, 511.0, 468.3333333333333, 468.3333333333333, 511.0, 468.3333333333333, 511.0, 511.0, 511.0, 511.0, 511.0, 553.6666666666666, 511.0, 511.0, 511.0, 511.0]","[89.33333333333333, 89.33333333333333, 89.33333333333333, 89.33333333333333, 80.33333333333333, 71.33333333333333, 71.33333333333333, 62.333333333333336, 62.333333333333336, 62.333333333333336, 62.333333333333336, 62.333333333333336, 62.333333333333336, 62.333333333333336, 62.333333333333336, 71.33333333333333, 71.33333333333333, 62.333333333333336, 62.333333333333336, 62.333333333333336, 62.333333333333336, 71.33333333333333, 71.33333333333333, 71.33333333333333, 71.33333333333333, 71.33333333333333, 71.33333333333333, 71.33333333333333, 71.33333333333333, 71.33333333333333, 71.33333333333333, 71.33333333333333, 62.333333333333336, 53.333333333333336, 53.333333333333336, 53.333333333333336, 53.333333333333336, 44.333333333333336, 53.0, 44.333333333333336, 53.333333333333336, 53.333333333333336, 53.333333333333336, 53.333333333333336, 62.333333333333336, 53.333333333333336, 53.333333333333336, 62.333333333333336, 62.333333333333336, 71.33333333333333, 71.33333333333333, 71.33333333333333, 71.33333333333333, 71.33333333333333, 71.33333333333333, 71.33333333333333, 71.33333333333333, 71.33333333333333, 71.33333333333333, 71.33333333333333, 71.33333333333333, 71.33333333333333, 62.333333333333336, 62.333333333333336, 53.333333333333336, 53.333333333333336, 53.333333333333336, 44.333333333333336, 35.333333333333336, 35.333333333333336, 35.333333333333336, 35.333333333333336, 35.333333333333336, 26.333333333333332, 26.333333333333332, 17.666666666666668, 17.666666666666668, 17.666666666666668, 17.666666666666668, 17.666666666666668, 17.666666666666668, 17.666666666666668, 17.666666666666668, 17.666666666666668, 17.666666666666668, 17.666666666666668, 17.666666666666668, 17.666666666666668, 17.666666666666668, 17.666666666666668, 17.666666666666668, 17.666666666666668, 17.666666666666668, 17.666666666666668, 17.666666666666668, 17.666666666666668, 17.666666666666668, 17.666666666666668, 17.666666666666668, 17.666666666666668, 17.666666666666668, 17.666666666666668, 17.666666666666668, 17.666666666666668, 26.333333333333332, 26.333333333333332, 44.333333333333336, 44.333333333333336, 62.0, 71.0, 80.0, 98.0, 98.0, 116.0, 125.0, 134.0, 143.0, 151.66666666666666, 151.66666666666666, 160.66666666666666, 169.66666666666666, 178.66666666666666, 178.66666666666666, 178.66666666666666, 178.66666666666666, 169.66666666666666, 169.66666666666666, 160.66666666666666, 160.66666666666666, 151.66666666666666, 143.0, 134.0, 125.0, 107.33333333333333, 98.33333333333333, 80.33333333333333, 71.33333333333333, 80.33333333333333, 71.33333333333333, 71.33333333333333, 71.33333333333333, 71.33333333333333, 71.33333333333333, 62.666666666666664, 71.66666666666667, 71.66666666666667, 71.66666666666667, 80.66666666666667, 80.66666666666667, 89.66666666666667, 89.66666666666667, 89.66666666666667, 89.66666666666667, 89.66666666666667, 89.66666666666667, 98.33333333333333, 98.33333333333333, 107.33333333333333, 98.33333333333333, 98.33333333333333, 98.33333333333333, 89.33333333333333, 89.33333333333333, 80.33333333333333, 80.33333333333333, 89.33333333333333, 80.33333333333333, 80.33333333333333, 89.33333333333333, 89.33333333333333, 98.33333333333333, 98.33333333333333, 107.33333333333333, 98.33333333333333, 98.33333333333333, 98.33333333333333, 98.33333333333333, 98.33333333333333, 107.33333333333333, 107.33333333333333, 98.33333333333333, 98.33333333333333, 89.33333333333333, 80.33333333333333, 71.33333333333333, 71.33333333333333, 71.33333333333333, 62.333333333333336, 62.333333333333336, 53.333333333333336, 44.333333333333336, 35.333333333333336, 35.333333333333336, 35.333333333333336, 35.333333333333336, 26.333333333333332, 26.333333333333332, 17.666666666666668, 17.666666666666668, 26.333333333333332, 26.333333333333332, 35.333333333333336, 44.0, 44.0, 44.0, 44.0, 35.333333333333336, 35.333333333333336, 35.333333333333336, 26.333333333333332, 17.666666666666668, 17.666666666666668, 17.666666666666668, 17.666666666666668, 17.666666666666668, 17.666666666666668, 17.666666666666668, 17.666666666666668, 17.666666666666668, 17.666666666666668, 17.666666666666668, 8.666666666666666, 8.666666666666666, 0.0, 0.0, 0.0, 0.0, 0.0, 0.0, 8.666666666666666, 17.666666666666668, 17.666666666666668, 17.666666666666668, 26.333333333333332, 26.333333333333332, 35.333333333333336, 35.333333333333336, 35.333333333333336, 44.333333333333336, 53.333333333333336, 53.333333333333336, 62.333333333333336, 62.333333333333336, 71.33333333333333, 71.33333333333333, 80.0, 80.0, 89.0, 98.0, 107.0, 116.0, 107.0, 107.33333333333333, 116.33333333333333, 116.33333333333333, 143.0, 143.0, 161.0, 170.0, 170.0, 179.0, 197.0, 206.0, 215.0, 224.0, 242.0, 251.0, 251.0, 260.0, 251.0, 251.0, 242.0, 233.0, 233.0, 233.0, 233.0, 215.0]"
589,1,"[511.0, 511.0, 511.0, 511.0, 511.0, 511.0, 511.0, 511.0, 511.0, 511.0, 511.0, 511.0, 511.0, 511.0, 511.0, 511.0, 511.0, 511.0, 511.0, 511.0, 511.0, 511.0, 511.0, 511.0, 511.0, 511.0, 511.0, 511.0, 511.0, 511.0, 511.0, 511.0, 511.0, 511.0, 511.0, 511.0, 511.0, 511.0, 511.0, 511.0, 511.0, 511.0, 511.0, 511.0, 511.0, 511.0, 511.0, 511.0, 511.0, 511.0, 511.0, 511.0, 511.0, 511.0, 511.0, 511.0, 511.0, 511.0, 511.0, 511.0, 511.0, 511.0, 511.0, 511.0, 511.0, 511.0, 511.0, 511.0, 511.0, 511.0, 511.0, 511.0, 511.0, 511.0, 511.0, 511.0, 511.0, 511.0, 511.0, 511.0, 511.0, 511.0, 511.0, 511.0, 511.0, 511.0, 511.0, 511.0, 511.0, 511.0, 511.0, 511.0, 511.0, 511.0, 511.0, 511.0, 511.0, 511.0, 511.0, 511.0, 511.0, 511.0, 511.0, 511.0, 511.0, 511.0, 511.0, 511.0, 511.0, 511.0, 511.0, 511.0, 511.0, 511.0, 511.0, 511.0, 511.0, 511.0, 511.0, 511.0, 511.0, 511.0, 511.0, 511.0, 511.0, 511.0, 511.0, 511.0, 511.0, 511.0, 511.0, 511.0, 511.0, 511.0, 511.0, 511.0, 511.0, 511.0, 511.0, 511.0, 511.0, 511.0, 511.0, 511.0, 511.0, 511.0, 511.0, 511.0, 511.0, 511.0, 511.0, 511.0, 511.0, 511.0, 511.0, 511.0, 511.0, 511.0, 511.0, 511.0, 511.0, 511.0, 511.0, 511.0, 511.0, 511.0, 511.0, 511.0, 511.0, 511.0, 511.0, 511.0, 511.0, 511.0, 511.0, 511.0, 511.0, 511.0, 511.0, 511.0, 511.0, 511.0, 511.0, 511.0, 511.0, 511.0, 511.0, 511.0, 511.0, 511.0, 511.0, 511.0, 511.0, 511.0, 511.0, 511.0, 511.0, 511.0, 511.0, 511.0, 511.0, 511.0, 511.0, 511.0, 511.0, 511.0, 511.0, 511.0, 511.0, 511.0, 511.0, 511.0, 511.0, 511.0, 511.0, 511.0, 511.0, 511.0, 511.0, 511.0, 511.0, 511.0, 511.0, 511.0, 511.0, 511.0, 511.0, 511.0, 511.0, 511.0, 511.0, 511.0, 511.0, 511.0, 511.0, 511.0, 511.0, 511.0, 511.0, 511.0, 511.0, 511.0, 511.0, 511.0, 511.0, 511.0, 511.0, 511.0, 511.0, 511.0, 511.0, 511.0, 511.0, 511.0, 511.0, 511.0, 511.0, 511.0, 511.0, 511.0, 511.0, 511.0, 511.0, 511.0, 511.0, 511.0, 511.0, 511.0, 511.0, 511.0, 511.0, 511.0, 511.0, 511.0, 511.0, 511.0, 511.0, 511.0]","[0.0, 0.0, 0.0, 0.0, 0.0, 0.0, 0.0, 0.0, 0.0, 0.0, 0.0, 0.0, 0.0, 0.0, 0.0, 0.0, 0.0, 0.0, 0.0, 0.0, 0.0, 0.0, 0.0, 0.0, 0.0, 0.0, 0.0, 0.0, 0.0, 0.0, 0.0, 0.0, 0.0, 0.0, 0.0, 0.0, 0.0, 0.0, 0.0, 0.0, 0.0, 0.0, 0.0, 0.0, 0.0, 0.0, 0.0, 0.0, 0.0, 0.0, 0.0, 0.0, 0.0, 0.0, 0.0, 0.0, 0.0, 0.0, 0.0, 0.0, 0.0, 0.0, 0.0, 0.0, 0.0, 0.0, 0.0, 5.0, 5.0, 10.333333333333334, 10.333333333333334, 10.333333333333334, 10.333333333333334, 10.333333333333334, 10.333333333333334, 10.333333333333334, 10.333333333333334, 10.333333333333334, 10.333333333333334, 10.333333333333334, 10.333333333333334, 10.333333333333334, 10.333333333333334, 10.333333333333334, 10.333333333333334, 10.333333333333334, 10.333333333333334, 10.333333333333334, 10.333333333333334, 10.333333333333334, 10.333333333333334, 5.0, 5.0, 0.0, 0.0, 0.0, 0.0, 0.0, 0.0, 0.0, 0.0, 5.0, 5.0, 10.333333333333334, 5.0, 5.0, 5.0, 0.0, 0.0, 0.0, 0.0, 0.0, 0.0, 0.0, 0.0, 0.0, 0.0, 0.0, 0.0, 0.0, 0.0, 0.0, 0.0, 0.0, 0.0, 0.0, 0.0, 0.0, 0.0, 0.0, 0.0, 0.0, 0.0, 0.0, 0.0, 0.0, 0.0, 0.0, 0.0, 0.0, 0.0, 0.0, 0.0, 0.0, 0.0, 0.0, 0.0, 0.0, 0.0, 0.0, 0.0, 0.0, 0.0, 0.0, 0.0, 0.0, 0.0, 0.0, 0.0, 0.0, 0.0, 0.0, 0.0, 0.0, 0.0, 0.0, 0.0, 0.0, 0.0, 0.0, 0.0, 0.0, 0.0, 0.0, 0.0, 0.0, 0.0, 0.0, 0.0, 0.0, 0.0, 0.0, 0.0, 0.0, 0.0, 0.0, 0.0, 0.0, 0.0, 0.0, 0.0, 0.0, 0.0, 0.0, 0.0, 0.0, 0.0, 0.0, 0.0, 0.0, 0.0, 0.0, 0.0, 0.0, 0.0, 0.0, 0.0, 0.0, 0.0, 0.0, 0.0, 0.0, 0.0, 0.0, 0.0, 0.0, 0.0, 0.0, 0.0, 0.0, 0.0, 0.0, 0.0, 0.0, 0.0, 0.0, 0.0, 0.0, 0.0, 0.0, 0.0, 0.0, 0.0, 0.0, 0.0, 0.0, 0.0, 0.0, 0.0, 0.0, 0.0, 0.0, 0.0, 0.0, 0.0, 0.0, 0.0, 0.0, 0.0, 0.0, 0.0, 0.0, 0.0, 0.0, 0.0, 0.0, 0.0, 0.0, 0.0, 0.0, 0.0, 0.0, 0.0, 0.0, 0.0, 0.0, 0.0, 0.0, 0.0, 0.0, 0.0, 0.0, 0.0, 0.0, 0.0, 0.0, 0.0, 0.0]"
589,2,"[653.3333333333334, 553.6666666666666, 454.3333333333333, 440.0, 397.3333333333333, 511.0, 568.0, 454.3333333333333, 511.0, 624.6666666666666, 539.6666666666666, 426.0, 482.6666666666667, 596.3333333333334, 482.6666666666667, 468.3333333333333, 426.0, 596.3333333333334, 610.6666666666666, 511.0, 482.6666666666667, 582.3333333333334, 454.0, 496.6666666666667, 397.3333333333333, 496.6666666666667, 511.0, 411.6666666666667, 511.0, 397.3333333333333, 397.3333333333333, 568.0, 383.3333333333333, 454.3333333333333, 511.0, 539.3333333333334, 610.6666666666666, 525.3333333333334, 525.3333333333334, 511.0, 383.0, 454.3333333333333, 454.3333333333333, 539.6666666666666, 553.6666666666666, 425.6666666666667, 425.6666666666667, 482.6666666666667, 482.6666666666667, 482.6666666666667, 525.0, 553.6666666666666, 667.6666666666666, 525.3333333333334, 454.3333333333333, 468.6666666666667, 615.3333333333334, 539.6666666666666, 567.6666666666666, 511.0, 596.3333333333334, 397.3333333333333, 454.3333333333333, 568.0, 482.6666666666667, 426.0, 568.0, 681.3333333333334, 653.0, 482.6666666666667, 596.3333333333334, 567.6666666666666, 482.6666666666667, 539.3333333333334, 454.3333333333333, 539.3333333333334, 596.3333333333334, 539.3333333333334, 539.3333333333334, 454.3333333333333, 482.6666666666667, 539.3333333333334, 653.0, 511.0, 511.0, 511.3333333333333, 568.0, 511.3333333333333, 369.0, 426.0, 539.6666666666666, 511.3333333333333, 426.0, 482.6666666666667, 539.3333333333334, 454.3333333333333, 482.6666666666667, 511.0, 511.0, 511.0, 482.6666666666667, 426.0, 511.3333333333333, 539.6666666666666, 454.3333333333333, 369.0, 482.6666666666667, 340.3333333333333, 482.6666666666667, 596.3333333333334, 567.6666666666666, 567.6666666666666, 596.3333333333334, 539.3333333333334, 596.3333333333334, 397.3333333333333, 539.3333333333334, 567.6666666666666, 483.0, 511.0, 624.6666666666666, 511.0, 511.0, 567.6666666666666, 568.0, 482.6666666666667, 567.6666666666666, 482.6666666666667, 482.6666666666667, 454.3333333333333, 539.3333333333334, 539.3333333333334, 539.3333333333334, 454.3333333333333, 369.0, 511.0, 596.0, 425.6666666666667, 710.0, 498.0, 495.6666666666667, 524.0, 552.3333333333334, 441.3333333333333, 360.0, 445.3333333333333, 498.0, 524.0, 524.0, 557.0, 583.3333333333334, 495.6666666666667, 495.6666666666667, 472.0, 467.3333333333333, 465.0, 467.3333333333333, 607.3333333333334, 465.3333333333333, 463.3333333333333, 524.0, 520.0, 548.3333333333334, 495.6666666666667, 602.6666666666666, 633.6666666666666, 524.0, 522.0, 498.0, 498.0, 581.0, 550.3333333333334, 524.0, 524.0, 412.6666666666667, 495.6666666666667, 578.6666666666666, 552.3333333333334, 581.0, 467.0, 495.6666666666667, 524.0, 574.3333333333334, 576.6666666666666, 495.6666666666667, 524.0, 524.0, 526.3333333333334, 417.0, 522.0, 467.3333333333333, 441.3333333333333, 520.0, 526.3333333333334, 555.0, 498.0, 524.0, 467.3333333333333, 495.6666666666667, 465.0, 550.3333333333334, 524.0, 524.0, 583.3333333333334, 694.3333333333334, 443.3333333333333, 550.3333333333334, 574.3333333333334, 548.3333333333334, 493.6666666666667, 467.3333333333333, 410.6666666666667, 526.6666666666666, 467.3333333333333, 524.0, 659.6666666666666, 605.0, 550.3333333333334, 550.3333333333334, 524.0, 524.0, 495.6666666666667, 550.3333333333334, 467.3333333333333, 473.6666666666667, 555.0, 471.6666666666667, 419.3333333333333, 579.0, 524.3333333333334, 524.0, 552.3333333333334, 609.3333333333334, 721.0, 609.3333333333334, 412.6666666666667, 467.3333333333333, 498.0, 495.6666666666667, 581.0, 637.6666666666666, 607.0, 552.3333333333334, 469.6666666666667, 607.3333333333334, 581.0, 524.0, 552.3333333333334, 414.6666666666667, 467.3333333333333, 495.6666666666667, 524.0, 329.6666666666667, 437.0, 495.6666666666667, 473.6666666666667, 471.6666666666667, 495.6666666666667, 550.3333333333334, 443.3333333333333, 469.6666666666667, 522.0, 552.3333333333334, 635.6666666666666, 552.3333333333334, 524.0, 607.0, 526.3333333333334, 609.3333333333334, 637.6666666666666, 664.3333333333334, 495.6666666666667, 524.0, 524.0, 524.0, 552.3333333333334, 607.3333333333334]","[733.3333333333334, 786.6666666666666, 854.3333333333334, 836.6666666666666, 824.3333333333334, 812.0, 805.0, 798.0, 791.0, 789.6666666666666, 788.0, 793.3333333333334, 793.3333333333334, 793.3333333333334, 775.6666666666666, 779.3333333333334, 767.0, 765.3333333333334, 747.6666666666666, 723.3333333333334, 716.3333333333334, 714.6666666666666, 714.6666666666666, 732.3333333333334, 732.3333333333334, 739.3333333333334, 744.6666666666666, 755.3333333333334, 760.6666666666666, 766.0, 766.0, 766.0, 753.6666666666666, 764.3333333333334, 764.3333333333334, 771.3333333333334, 778.0, 783.3333333333334, 785.0, 797.3333333333334, 809.6666666666666, 822.0, 832.6666666666666, 838.0, 832.6666666666666, 832.6666666666666, 815.0, 809.6666666666666, 799.0, 795.3333333333334, 804.0, 805.6666666666666, 824.6666666666666, 856.3333333333334, 875.6666666666666, 888.0, 884.3333333333334, 873.6666666666666, 863.0, 847.0, 831.0, 825.6666666666666, 820.3333333333334, 804.3333333333334, 793.6666666666666, 777.6666666666666, 767.0, 761.6666666666666, 761.6666666666666, 761.6666666666666, 756.3333333333334, 756.3333333333334, 761.6666666666666, 756.3333333333334, 751.0, 724.3333333333334, 697.6666666666666, 676.3333333333334, 665.6666666666666, 665.6666666666666, 665.6666666666666, 660.3333333333334, 649.6666666666666, 649.6666666666666, 644.3333333333334, 649.6666666666666, 644.3333333333334, 644.3333333333334, 644.3333333333334, 649.6666666666666, 665.6666666666666, 676.3333333333334, 687.0, 681.6666666666666, 676.3333333333334, 660.3333333333334, 660.3333333333334, 649.6666666666666, 644.3333333333334, 639.0, 628.3333333333334, 617.6666666666666, 607.0, 612.3333333333334, 633.6666666666666, 644.3333333333334, 655.0, 655.0, 655.0, 644.3333333333334, 639.0, 639.0, 628.3333333333334, 612.3333333333334, 607.0, 591.0, 585.6666666666666, 585.6666666666666, 596.3333333333334, 596.3333333333334, 601.6666666666666, 601.6666666666666, 607.0, 612.3333333333334, 617.6666666666666, 623.0, 612.3333333333334, 585.6666666666666, 569.6666666666666, 543.0, 537.6666666666666, 532.3333333333334, 543.0, 553.6666666666666, 548.3333333333334, 553.6666666666666, 553.6666666666666, 564.3333333333334, 575.0, 580.3333333333334, 596.3333333333334, 607.0, 628.3333333333334, 644.3333333333334, 655.0, 665.6666666666666, 671.0, 687.0, 719.0, 740.3333333333334, 767.0, 793.6666666666666, 804.3333333333334, 809.6666666666666, 809.6666666666666, 793.6666666666666, 793.6666666666666, 788.3333333333334, 799.0, 809.6666666666666, 815.0, 809.6666666666666, 799.0, 788.3333333333334, 767.0, 756.3333333333334, 735.0, 729.6666666666666, 724.3333333333334, 729.6666666666666, 719.0, 708.3333333333334, 692.3333333333334, 676.3333333333334, 655.0, 633.6666666666666, 617.6666666666666, 607.0, 601.6666666666666, 612.3333333333334, 607.0, 607.0, 596.3333333333334, 585.6666666666666, 575.0, 575.0, 575.0, 559.0, 548.3333333333334, 543.0, 543.0, 548.3333333333334, 553.6666666666666, 548.3333333333334, 543.0, 527.0, 521.6666666666666, 521.6666666666666, 527.0, 537.6666666666666, 543.0, 553.6666666666666, 553.6666666666666, 553.6666666666666, 548.3333333333334, 548.3333333333334, 548.3333333333334, 553.6666666666666, 548.3333333333334, 543.0, 548.3333333333334, 553.6666666666666, 553.6666666666666, 559.0, 559.0, 559.0, 559.0, 553.6666666666666, 559.0, 553.6666666666666, 548.3333333333334, 553.6666666666666, 559.0, 553.6666666666666, 553.6666666666666, 564.3333333333334, 569.6666666666666, 575.0, 575.0, 575.0, 580.3333333333334, 585.6666666666666, 596.3333333333334, 607.0, 607.0, 617.6666666666666, 628.3333333333334, 623.0, 617.6666666666666, 607.0, 596.3333333333334, 596.3333333333334, 596.3333333333334, 607.0, 601.6666666666666, 601.6666666666666, 607.0, 601.6666666666666, 596.3333333333334, 591.0, 585.6666666666666, 580.3333333333334, 596.3333333333334, 596.3333333333334, 596.3333333333334, 596.3333333333334, 591.0, 591.0, 580.3333333333334, 575.0, 564.3333333333334, 559.0, 569.6666666666666, 585.6666666666666, 596.3333333333334, 607.0, 612.3333333333334, 623.0, 639.0, 639.0, 633.6666666666666, 628.3333333333334, 617.6666666666666, 617.6666666666666, 612.3333333333334, 607.0, 601.6666666666666]"
589,3,"[511.0, 511.0, 524.0, 524.0, 524.0, 524.0, 524.0, 524.0, 524.0, 524.0, 524.0, 524.0, 524.0, 524.0, 524.0, 524.0, 524.0, 524.0, 524.0, 524.0, 524.0, 524.0, 524.0, 524.0, 524.0, 524.0, 524.0, 524.0, 524.0, 524.0, 524.0, 524.0, 524.0, 524.0, 524.0, 524.0, 524.0, 524.0, 524.0, 524.0, 524.0, 524.0, 524.0, 524.0, 524.0, 524.0, 524.0, 524.0, 524.0, 524.0, 524.0, 524.0, 524.0, 524.0, 524.0, 524.0, 524.0, 524.0, 524.0, 524.0, 524.0, 524.0, 524.0, 524.0, 524.0, 524.0, 524.0, 524.0, 524.0, 524.0, 524.0, 524.0, 524.0, 524.0, 524.0, 524.0, 524.0, 524.0, 524.0, 524.0, 524.0, 524.0, 524.0, 524.0, 524.0, 524.0, 524.0, 524.0, 524.0, 524.0, 524.0, 524.0, 524.0, 524.0, 524.0, 524.0, 524.0, 524.0, 524.0, 524.0, 524.0, 524.0, 524.0, 524.0, 524.0, 524.0, 524.0, 524.0, 524.0, 524.0, 524.0, 524.0, 524.0, 524.0, 524.0, 524.0, 524.0, 524.0, 524.0, 524.0, 524.0, 524.0, 524.0, 524.0, 524.0, 524.0, 524.0, 524.0, 524.0, 524.0, 524.0, 524.0, 524.0, 524.0, 524.0, 524.0, 524.0, 524.0, 524.0, 524.0, 524.0, 524.0, 524.0, 524.0, 524.0, 524.0, 524.0, 524.0, 524.0, 524.0, 524.0, 524.0, 524.0, 524.0, 524.0, 524.0, 524.0, 524.0, 524.0, 524.0, 524.0, 524.0, 524.0, 524.0, 524.0, 524.0, 524.0, 524.0, 524.0, 524.0, 524.0, 524.0, 524.0, 524.0, 524.0, 524.0, 524.0, 524.0, 524.0, 524.0, 524.0, 524.0, 524.0, 524.0, 524.0, 524.0, 524.0, 524.0, 524.0, 524.0, 524.0, 524.0, 524.0, 524.0, 524.0, 524.0, 524.0, 524.0, 524.0, 524.0, 524.0, 524.0, 524.0, 524.0, 524.0, 524.0, 524.0, 524.0, 524.0, 524.0, 524.0, 524.0, 524.0, 524.0, 524.0, 524.0, 524.0, 524.0, 524.0, 524.0, 524.0, 524.0, 524.0, 524.0, 524.0, 524.0, 524.0, 524.0, 524.0, 524.0, 524.0, 524.0, 524.0, 524.0, 524.0, 524.0, 524.0, 524.0, 524.0, 524.0, 524.0, 524.0, 524.0, 524.0, 524.0, 524.0, 524.0, 524.0, 524.0, 524.0, 524.0, 524.0, 524.0, 524.0, 524.0, 524.0, 524.0, 524.0, 524.0, 524.0, 524.0, 524.0, 524.0, 524.0, 524.0, 524.0, 524.0, 524.0, 524.0, 524.0, 524.0, 524.0, 524.0, 524.0, 524.0, 524.0, 524.0, 524.0]","[0.0, 0.0, 0.0, 0.0, 0.0, 0.0, 0.0, 0.0, 0.0, 0.0, 0.0, 0.0, 0.0, 0.0, 0.0, 0.0, 0.0, 0.0, 0.0, 0.0, 0.0, 0.0, 0.0, 0.0, 0.0, 0.0, 0.0, 0.0, 0.0, 0.0, 0.0, 0.0, 0.0, 0.0, 0.0, 0.0, 0.0, 0.0, 0.0, 0.0, 0.0, 0.0, 0.0, 0.0, 0.0, 0.0, 0.0, 0.0, 0.0, 0.0, 0.0, 0.0, 0.0, 5.0, 5.0, 10.333333333333334, 10.333333333333334, 10.333333333333334, 10.333333333333334, 5.0, 5.0, 0.0, 0.0, 0.0, 0.0, 0.0, 0.0, 0.0, 0.0, 0.0, 0.0, 0.0, 0.0, 0.0, 0.0, 0.0, 0.0, 0.0, 0.0, 0.0, 0.0, 0.0, 0.0, 0.0, 0.0, 0.0, 0.0, 0.0, 0.0, 0.0, 0.0, 0.0, 0.0, 0.0, 0.0, 0.0, 0.0, 0.0, 0.0, 0.0, 0.0, 0.0, 0.0, 0.0, 0.0, 0.0, 0.0, 0.0, 0.0, 0.0, 0.0, 0.0, 0.0, 0.0, 0.0, 0.0, 0.0, 0.0, 0.0, 0.0, 0.0, 0.0, 0.0, 0.0, 0.0, 0.0, 0.0, 0.0, 0.0, 0.0, 0.0, 0.0, 0.0, 0.0, 0.0, 0.0, 0.0, 0.0, 0.0, 0.0, 0.0, 0.0, 0.0, 0.0, 0.0, 0.0, 0.0, 0.0, 0.0, 0.0, 0.0, 0.0, 0.0, 0.0, 0.0, 0.0, 0.0, 0.0, 0.0, 0.0, 0.0, 0.0, 0.0, 0.0, 0.0, 0.0, 0.0, 0.0, 0.0, 0.0, 0.0, 0.0, 0.0, 0.0, 0.0, 0.0, 0.0, 0.0, 0.0, 0.0, 0.0, 0.0, 0.0, 0.0, 0.0, 0.0, 0.0, 0.0, 0.0, 0.0, 0.0, 0.0, 0.0, 0.0, 0.0, 0.0, 0.0, 0.0, 0.0, 0.0, 0.0, 0.0, 0.0, 0.0, 0.0, 0.0, 0.0, 0.0, 0.0, 0.0, 0.0, 0.0, 0.0, 0.0, 0.0, 0.0, 0.0, 0.0, 0.0, 0.0, 0.0, 0.0, 0.0, 0.0, 0.0, 0.0, 0.0, 0.0, 0.0, 0.0, 0.0, 0.0, 0.0, 0.0, 0.0, 5.0, 5.0, 10.333333333333334, 10.333333333333334, 10.333333333333334, 5.0, 5.0, 0.0, 0.0, 0.0, 0.0, 0.0, 0.0, 0.0, 0.0, 0.0, 0.0, 0.0, 0.0, 0.0, 0.0, 0.0, 0.0, 0.0, 0.0, 0.0, 0.0, 0.0, 0.0, 0.0, 0.0, 0.0, 0.0, 0.0, 0.0, 0.0, 0.0, 0.0, 0.0, 0.0, 0.0, 0.0, 0.0]"
